T[eV]        κe[W/(keVcm)](SMT)       κe[W/(keVcm)](mod. SMT)
1.00000e-02 7.24478e+05 3.31673e+05
1.17681e-02 8.18369e+05 3.75494e+05
1.38489e-02 9.25152e+05 4.25473e+05
1.62975e-02 1.04672e+06 4.82541e+05
1.91791e-02 1.18526e+06 5.47778e+05
2.25702e-02 1.34331e+06 6.22443e+05
2.65609e-02 1.52382e+06 7.08008e+05
3.12572e-02 1.73023e+06 8.06192e+05
3.67838e-02 1.96653e+06 9.19013e+05
4.32876e-02 2.23741e+06 1.04884e+06
5.09414e-02 2.54833e+06 1.19846e+06
5.99484e-02 2.90571e+06 1.37116e+06
7.05480e-02 3.31709e+06 1.57085e+06
8.30218e-02 3.79133e+06 1.80213e+06
9.77010e-02 4.33894e+06 2.07051e+06
1.14976e-01 4.97233e+06 2.38254e+06
1.35305e-01 5.70631e+06 2.74611e+06
1.59228e-01 6.55840e+06 3.17064e+06
1.87382e-01 7.54940e+06 3.66738e+06
2.20513e-01 8.70401e+06 4.24986e+06
2.59502e-01 1.00523e+07 4.93469e+06
3.05386e-01 1.16303e+07 5.74201e+06
3.59381e-01 1.34816e+07 6.69638e+06
4.22924e-01 1.56589e+07 7.82796e+06
4.97702e-01 1.82268e+07 9.17401e+06
5.85702e-01 2.12637e+07 1.07805e+07
6.89261e-01 2.48654e+07 1.27041e+07
8.11131e-01 2.91499e+07 1.50157e+07
9.54548e-01 3.42629e+07 1.78040e+07
1.12332e+00 4.03847e+07 2.11804e+07
1.32194e+00 4.77398e+07 2.52854e+07
1.55568e+00 5.66082e+07 3.02968e+07
1.83074e+00 6.73405e+07 3.64399e+07
2.15443e+00 8.03767e+07 4.40015e+07
2.53536e+00 9.62706e+07 5.33464e+07
2.98365e+00 1.15720e+08 6.49385e+07
3.51119e+00 1.39603e+08 7.93667e+07
4.13201e+00 1.69024e+08 9.73751e+07
4.86260e+00 2.05369e+08 1.19897e+08
5.72237e+00 2.50357e+08 1.48095e+08
6.73415e+00 3.06104e+08 1.83398e+08
7.92483e+00 3.75167e+08 2.27554e+08
9.32603e+00 4.60571e+08 2.82687e+08
1.09750e+01 5.65791e+08 3.51416e+08
1.29155e+01 6.94708e+08 4.37063e+08
1.51991e+01 8.51560e+08 5.44069e+08
1.78865e+01 1.04106e+09 6.78733e+08
2.10490e+01 1.26902e+09 8.50394e+08
2.47708e+01 1.54406e+09 1.07315e+09
2.91505e+01 1.88056e+09 1.36775e+09
3.43047e+01 2.30292e+09 1.76295e+09
4.03702e+01 2.84942e+09 2.29598e+09
4.75081e+01 3.56903e+09 3.01979e+09
5.59081e+01 4.53581e+09 3.99233e+09
6.57933e+01 5.81625e+09 5.28131e+09
7.74264e+01 7.47969e+09 6.98043e+09
9.11163e+01 9.62993e+09 9.22220e+09
1.07227e+02 1.24108e+10 1.21955e+10
1.26186e+02 1.60491e+10 1.61397e+10
1.48497e+02 2.08362e+10 2.13758e+10
1.74753e+02 2.72432e+10 2.84415e+10
2.05651e+02 3.55258e+10 3.79299e+10
2.42013e+02 4.62012e+10 5.05060e+10
2.84804e+02 6.02882e+10 6.72657e+10
3.35160e+02 7.91010e+10 8.98670e+10
3.94421e+02 1.04349e+11 1.20618e+11
4.64159e+02 1.38364e+11 1.62801e+11
5.46228e+02 1.84423e+11 2.21147e+11
6.42807e+02 2.46999e+11 3.01751e+11
7.56463e+02 3.32377e+11 4.13407e+11
8.90215e+02 4.49469e+11 5.68781e+11
1.04762e+03 6.11006e+11 7.86268e+11
1.23285e+03 8.35451e+11 1.09312e+12
1.45083e+03 1.15021e+12 1.53091e+12
1.70735e+03 1.59743e+12 2.16587e+12
2.00923e+03 2.24577e+12 3.11061e+12
2.36449e+03 3.21788e+12 4.57618e+12
2.78256e+03 4.77000e+12 7.02487e+12
3.27455e+03 7.61688e+12 1.17937e+13
3.85353e+03 1.56117e+13 2.64105e+13
4.53488e+03 nan nan
5.33670e+03 nan nan
6.28029e+03 nan nan
7.39072e+03 nan nan
8.69749e+03 nan nan
1.02353e+04 nan nan
1.20450e+04 nan nan
1.41747e+04 nan nan
1.66810e+04 nan nan
1.96304e+04 nan nan
2.31013e+04 nan nan
2.71859e+04 nan nan
3.19927e+04 nan nan
3.76494e+04 nan nan
4.43062e+04 nan nan
5.21401e+04 nan nan
6.13591e+04 nan nan
7.22081e+04 nan nan
8.49753e+04 nan nan
1.00000e+05 nan nan
