T[eV]        κe[W/(keVcm)]
1.00000e-02 7.24478e+05
1.01159e-02 7.30736e+05
1.02332e-02 7.37051e+05
1.03518e-02 7.43424e+05
1.04718e-02 7.49854e+05
1.05931e-02 7.56342e+05
1.07159e-02 7.62890e+05
1.08401e-02 7.69498e+05
1.09658e-02 7.76165e+05
1.10929e-02 7.82894e+05
1.12215e-02 7.89684e+05
1.13515e-02 7.96535e+05
1.14831e-02 8.03450e+05
1.16162e-02 8.10427e+05
1.17509e-02 8.17469e+05
1.18871e-02 8.24574e+05
1.20249e-02 8.31745e+05
1.21642e-02 8.38982e+05
1.23052e-02 8.46284e+05
1.24479e-02 8.53654e+05
1.25922e-02 8.61091e+05
1.27381e-02 8.68597e+05
1.28858e-02 8.76171e+05
1.30351e-02 8.83815e+05
1.31862e-02 8.91530e+05
1.33391e-02 8.99315e+05
1.34937e-02 9.07172e+05
1.36501e-02 9.15101e+05
1.38083e-02 9.23103e+05
1.39684e-02 9.31179e+05
1.41303e-02 9.39330e+05
1.42940e-02 9.47556e+05
1.44597e-02 9.55857e+05
1.46273e-02 9.64236e+05
1.47969e-02 9.72692e+05
1.49684e-02 9.81226e+05
1.51419e-02 9.89839e+05
1.53174e-02 9.98532e+05
1.54950e-02 1.00730e+06
1.56746e-02 1.01616e+06
1.58562e-02 1.02510e+06
1.60400e-02 1.03412e+06
1.62260e-02 1.04322e+06
1.64140e-02 1.05241e+06
1.66043e-02 1.06168e+06
1.67967e-02 1.07104e+06
1.69914e-02 1.08049e+06
1.71884e-02 1.09002e+06
1.73876e-02 1.09965e+06
1.75892e-02 1.10936e+06
1.77930e-02 1.11916e+06
1.79993e-02 1.12906e+06
1.82079e-02 1.13905e+06
1.84190e-02 1.14913e+06
1.86325e-02 1.15930e+06
1.88484e-02 1.16957e+06
1.90669e-02 1.17994e+06
1.92879e-02 1.19040e+06
1.95115e-02 1.20097e+06
1.97376e-02 1.21163e+06
1.99664e-02 1.22239e+06
2.01979e-02 1.23325e+06
2.04320e-02 1.24421e+06
2.06688e-02 1.25528e+06
2.09084e-02 1.26645e+06
2.11507e-02 1.27773e+06
2.13959e-02 1.28911e+06
2.16439e-02 1.30060e+06
2.18948e-02 1.31220e+06
2.21486e-02 1.32391e+06
2.24053e-02 1.33573e+06
2.26650e-02 1.34766e+06
2.29277e-02 1.35970e+06
2.31935e-02 1.37186e+06
2.34623e-02 1.38413e+06
2.37342e-02 1.39652e+06
2.40093e-02 1.40902e+06
2.42876e-02 1.42164e+06
2.45692e-02 1.43439e+06
2.48539e-02 1.44725e+06
2.51420e-02 1.46024e+06
2.54335e-02 1.47335e+06
2.57283e-02 1.48658e+06
2.60265e-02 1.49994e+06
2.63282e-02 1.51343e+06
2.66333e-02 1.52705e+06
2.69420e-02 1.54079e+06
2.72543e-02 1.55467e+06
2.75702e-02 1.56868e+06
2.78898e-02 1.58283e+06
2.82131e-02 1.59710e+06
2.85401e-02 1.61152e+06
2.88709e-02 1.62607e+06
2.92056e-02 1.64077e+06
2.95441e-02 1.65560e+06
2.98865e-02 1.67058e+06
3.02329e-02 1.68570e+06
3.05834e-02 1.70096e+06
3.09379e-02 1.71637e+06
3.12965e-02 1.73193e+06
3.16592e-02 1.74764e+06
3.20262e-02 1.76350e+06
3.23974e-02 1.77951e+06
3.27729e-02 1.79568e+06
3.31528e-02 1.81201e+06
3.35371e-02 1.82849e+06
3.39258e-02 1.84513e+06
3.43191e-02 1.86193e+06
3.47169e-02 1.87889e+06
3.51193e-02 1.89602e+06
3.55263e-02 1.91331e+06
3.59381e-02 1.93077e+06
3.63547e-02 1.94841e+06
3.67761e-02 1.96621e+06
3.72024e-02 1.98418e+06
3.76336e-02 2.00233e+06
3.80698e-02 2.02066e+06
3.85111e-02 2.03916e+06
3.89575e-02 2.05785e+06
3.94090e-02 2.07671e+06
3.98658e-02 2.09576e+06
4.03279e-02 2.11500e+06
4.07953e-02 2.13442e+06
4.12682e-02 2.15404e+06
4.17466e-02 2.17384e+06
4.22304e-02 2.19384e+06
4.27199e-02 2.21404e+06
4.32151e-02 2.23443e+06
4.37160e-02 2.25502e+06
4.42227e-02 2.27582e+06
4.47353e-02 2.29682e+06
4.52539e-02 2.31802e+06
4.57784e-02 2.33943e+06
4.63090e-02 2.36106e+06
4.68458e-02 2.38290e+06
4.73888e-02 2.40495e+06
4.79381e-02 2.42722e+06
4.84937e-02 2.44971e+06
4.90558e-02 2.47242e+06
4.96244e-02 2.49536e+06
5.01997e-02 2.51852e+06
5.07815e-02 2.54191e+06
5.13701e-02 2.56554e+06
5.19656e-02 2.58940e+06
5.25679e-02 2.61349e+06
5.31772e-02 2.63782e+06
5.37936e-02 2.66240e+06
5.44171e-02 2.68722e+06
5.50479e-02 2.71229e+06
5.56860e-02 2.73760e+06
5.63314e-02 2.76317e+06
5.69844e-02 2.78899e+06
5.76449e-02 2.81507e+06
5.83131e-02 2.84142e+06
5.89890e-02 2.86802e+06
5.96727e-02 2.89489e+06
6.03644e-02 2.92203e+06
6.10641e-02 2.94944e+06
6.17719e-02 2.97712e+06
6.24879e-02 3.00509e+06
6.32122e-02 3.03333e+06
6.39449e-02 3.06186e+06
6.46861e-02 3.09067e+06
6.54359e-02 3.11978e+06
6.61943e-02 3.14917e+06
6.69616e-02 3.17887e+06
6.77378e-02 3.20886e+06
6.85229e-02 3.23915e+06
6.93172e-02 3.26975e+06
7.01206e-02 3.30066e+06
7.09334e-02 3.33189e+06
7.17556e-02 3.36342e+06
7.25873e-02 3.39528e+06
7.34287e-02 3.42746e+06
7.42798e-02 3.45997e+06
7.51408e-02 3.49281e+06
7.60118e-02 3.52598e+06
7.68928e-02 3.55949e+06
7.77841e-02 3.59334e+06
7.86857e-02 3.62753e+06
7.95978e-02 3.66207e+06
8.05204e-02 3.69697e+06
8.14537e-02 3.73222e+06
8.23979e-02 3.76783e+06
8.33529e-02 3.80380e+06
8.43191e-02 3.84015e+06
8.52964e-02 3.87686e+06
8.62851e-02 3.91395e+06
8.72853e-02 3.95143e+06
8.82970e-02 3.98928e+06
8.93205e-02 4.02753e+06
9.03558e-02 4.06617e+06
9.14031e-02 4.10521e+06
9.24626e-02 4.14465e+06
9.35343e-02 4.18449e+06
9.46185e-02 4.22475e+06
9.57152e-02 4.26542e+06
9.68247e-02 4.30651e+06
9.79470e-02 4.34803e+06
9.90823e-02 4.38998e+06
1.00231e-01 4.43236e+06
1.01393e-01 4.47518e+06
1.02568e-01 4.51845e+06
1.03757e-01 4.56216e+06
1.04959e-01 4.60634e+06
1.06176e-01 4.65097e+06
1.07407e-01 4.69606e+06
1.08652e-01 4.74163e+06
1.09911e-01 4.78767e+06
1.11185e-01 4.83420e+06
1.12474e-01 4.88121e+06
1.13777e-01 4.92871e+06
1.15096e-01 4.97671e+06
1.16430e-01 5.02521e+06
1.17780e-01 5.07423e+06
1.19145e-01 5.12376e+06
1.20526e-01 5.17380e+06
1.21923e-01 5.22438e+06
1.23336e-01 5.27549e+06
1.24766e-01 5.32713e+06
1.26212e-01 5.37933e+06
1.27675e-01 5.43207e+06
1.29155e-01 5.48537e+06
1.30652e-01 5.53923e+06
1.32166e-01 5.59367e+06
1.33698e-01 5.64868e+06
1.35248e-01 5.70428e+06
1.36816e-01 5.76046e+06
1.38402e-01 5.81724e+06
1.40006e-01 5.87463e+06
1.41629e-01 5.93263e+06
1.43270e-01 5.99124e+06
1.44931e-01 6.05048e+06
1.46611e-01 6.11035e+06
1.48310e-01 6.17086e+06
1.50029e-01 6.23202e+06
1.51768e-01 6.29384e+06
1.53528e-01 6.35631e+06
1.55307e-01 6.41945e+06
1.57107e-01 6.48328e+06
1.58928e-01 6.54778e+06
1.60770e-01 6.61298e+06
1.62634e-01 6.67888e+06
1.64519e-01 6.74549e+06
1.66426e-01 6.81282e+06
1.68355e-01 6.88087e+06
1.70307e-01 6.94966e+06
1.72281e-01 7.01919e+06
1.74277e-01 7.08947e+06
1.76298e-01 7.16051e+06
1.78341e-01 7.23232e+06
1.80408e-01 7.30491e+06
1.82499e-01 7.37829e+06
1.84615e-01 7.45246e+06
1.86755e-01 7.52743e+06
1.88919e-01 7.60322e+06
1.91109e-01 7.67984e+06
1.93324e-01 7.75729e+06
1.95565e-01 7.83558e+06
1.97832e-01 7.91473e+06
2.00125e-01 7.99473e+06
2.02445e-01 8.07562e+06
2.04791e-01 8.15738e+06
2.07165e-01 8.24005e+06
2.09566e-01 8.32362e+06
2.11995e-01 8.40811e+06
2.14453e-01 8.49353e+06
2.16938e-01 8.57990e+06
2.19453e-01 8.66721e+06
2.21997e-01 8.75548e+06
2.24570e-01 8.84474e+06
2.27173e-01 8.93497e+06
2.29806e-01 9.02621e+06
2.32470e-01 9.11846e+06
2.35164e-01 9.21172e+06
2.37890e-01 9.30603e+06
2.40648e-01 9.40138e+06
2.43437e-01 9.49779e+06
2.46259e-01 9.59528e+06
2.49113e-01 9.69385e+06
2.52000e-01 9.79352e+06
2.54921e-01 9.89431e+06
2.57876e-01 9.99622e+06
2.60865e-01 1.00993e+07
2.63889e-01 1.02035e+07
2.66948e-01 1.03089e+07
2.70042e-01 1.04154e+07
2.73172e-01 1.05232e+07
2.76339e-01 1.06321e+07
2.79542e-01 1.07423e+07
2.82782e-01 1.08538e+07
2.86060e-01 1.09665e+07
2.89375e-01 1.10804e+07
2.92729e-01 1.11957e+07
2.96123e-01 1.13122e+07
2.99555e-01 1.14301e+07
3.03027e-01 1.15493e+07
3.06540e-01 1.16699e+07
3.10093e-01 1.17919e+07
3.13687e-01 1.19152e+07
3.17323e-01 1.20399e+07
3.21001e-01 1.21661e+07
3.24722e-01 1.22937e+07
3.28486e-01 1.24227e+07
3.32293e-01 1.25533e+07
3.36145e-01 1.26853e+07
3.40041e-01 1.28189e+07
3.43983e-01 1.29539e+07
3.47970e-01 1.30906e+07
3.52003e-01 1.32288e+07
3.56083e-01 1.33686e+07
3.60211e-01 1.35100e+07
3.64386e-01 1.36530e+07
3.68610e-01 1.37977e+07
3.72882e-01 1.39441e+07
3.77204e-01 1.40922e+07
3.81576e-01 1.42419e+07
3.85999e-01 1.43935e+07
3.90474e-01 1.45468e+07
3.95000e-01 1.47018e+07
3.99578e-01 1.48587e+07
4.04210e-01 1.50174e+07
4.08895e-01 1.51780e+07
4.13634e-01 1.53404e+07
4.18429e-01 1.55048e+07
4.23279e-01 1.56711e+07
4.28185e-01 1.58393e+07
4.33148e-01 1.60095e+07
4.38169e-01 1.61817e+07
4.43248e-01 1.63559e+07
4.48386e-01 1.65322e+07
4.53583e-01 1.67106e+07
4.58840e-01 1.68911e+07
4.64159e-01 1.70737e+07
4.69539e-01 1.72585e+07
4.74981e-01 1.74455e+07
4.80487e-01 1.76347e+07
4.86056e-01 1.78262e+07
4.91690e-01 1.80200e+07
4.97390e-01 1.82160e+07
5.03155e-01 1.84144e+07
5.08987e-01 1.86152e+07
5.14887e-01 1.88184e+07
5.20855e-01 1.90240e+07
5.26892e-01 1.92321e+07
5.32999e-01 1.94427e+07
5.39177e-01 1.96558e+07
5.45427e-01 1.98714e+07
5.51749e-01 2.00897e+07
5.58145e-01 2.03106e+07
5.64614e-01 2.05342e+07
5.71159e-01 2.07605e+07
5.77779e-01 2.09895e+07
5.84476e-01 2.12213e+07
5.91251e-01 2.14559e+07
5.98104e-01 2.16934e+07
6.05037e-01 2.19337e+07
6.12050e-01 2.21770e+07
6.19144e-01 2.24232e+07
6.26321e-01 2.26725e+07
6.33580e-01 2.29248e+07
6.40924e-01 2.31802e+07
6.48353e-01 2.34387e+07
6.55869e-01 2.37004e+07
6.63471e-01 2.39653e+07
6.71161e-01 2.42335e+07
6.78941e-01 2.45050e+07
6.86810e-01 2.47798e+07
6.94771e-01 2.50580e+07
7.02824e-01 2.53397e+07
7.10971e-01 2.56249e+07
7.19212e-01 2.59136e+07
7.27548e-01 2.62058e+07
7.35981e-01 2.65017e+07
7.44512e-01 2.68013e+07
7.53142e-01 2.71047e+07
7.61872e-01 2.74118e+07
7.70703e-01 2.77227e+07
7.79636e-01 2.80376e+07
7.88673e-01 2.83564e+07
7.97814e-01 2.86792e+07
8.07062e-01 2.90060e+07
8.16417e-01 2.93370e+07
8.25880e-01 2.96721e+07
8.35453e-01 3.00115e+07
8.45137e-01 3.03551e+07
8.54933e-01 3.07031e+07
8.64842e-01 3.10555e+07
8.74867e-01 3.14123e+07
8.85007e-01 3.17737e+07
8.95266e-01 3.21397e+07
9.05643e-01 3.25104e+07
9.16140e-01 3.28857e+07
9.26759e-01 3.32659e+07
9.37502e-01 3.36509e+07
9.48368e-01 3.40409e+07
9.59361e-01 3.44358e+07
9.70481e-01 3.48358e+07
9.81730e-01 3.52410e+07
9.93109e-01 3.56513e+07
1.00462e+00 3.60670e+07
1.01627e+00 3.64880e+07
1.02804e+00 3.69145e+07
1.03996e+00 3.73464e+07
1.05202e+00 3.77840e+07
1.06421e+00 3.82272e+07
1.07654e+00 3.86762e+07
1.08902e+00 3.91311e+07
1.10165e+00 3.95918e+07
1.11442e+00 4.00586e+07
1.12733e+00 4.05315e+07
1.14040e+00 4.10105e+07
1.15362e+00 4.14959e+07
1.16699e+00 4.19876e+07
1.18052e+00 4.24857e+07
1.19420e+00 4.29904e+07
1.20804e+00 4.35017e+07
1.22204e+00 4.40198e+07
1.23621e+00 4.45447e+07
1.25054e+00 4.50766e+07
1.26503e+00 4.56155e+07
1.27970e+00 4.61616e+07
1.29453e+00 4.67149e+07
1.30954e+00 4.72755e+07
1.32471e+00 4.78436e+07
1.34007e+00 4.84193e+07
1.35560e+00 4.90027e+07
1.37131e+00 4.95939e+07
1.38721e+00 5.01930e+07
1.40329e+00 5.08001e+07
1.41955e+00 5.14154e+07
1.43601e+00 5.20389e+07
1.45265e+00 5.26708e+07
1.46949e+00 5.33113e+07
1.48652e+00 5.39604e+07
1.50376e+00 5.46182e+07
1.52119e+00 5.52850e+07
1.53882e+00 5.59608e+07
1.55665e+00 5.66458e+07
1.57470e+00 5.73401e+07
1.59295e+00 5.80438e+07
1.61141e+00 5.87572e+07
1.63009e+00 5.94802e+07
1.64899e+00 6.02132e+07
1.66810e+00 6.09562e+07
1.68744e+00 6.17093e+07
1.70699e+00 6.24728e+07
1.72678e+00 6.32468e+07
1.74680e+00 6.40314e+07
1.76704e+00 6.48269e+07
1.78753e+00 6.56333e+07
1.80824e+00 6.64509e+07
1.82920e+00 6.72797e+07
1.85041e+00 6.81201e+07
1.87186e+00 6.89721e+07
1.89355e+00 6.98360e+07
1.91550e+00 7.07119e+07
1.93770e+00 7.16000e+07
1.96016e+00 7.25004e+07
1.98288e+00 7.34135e+07
2.00587e+00 7.43393e+07
2.02912e+00 7.52781e+07
2.05264e+00 7.62300e+07
2.07643e+00 7.71954e+07
2.10050e+00 7.81743e+07
2.12485e+00 7.91670e+07
2.14947e+00 8.01737e+07
2.17439e+00 8.11946e+07
2.19959e+00 8.22299e+07
2.22509e+00 8.32799e+07
2.25088e+00 8.43448e+07
2.27697e+00 8.54248e+07
2.30336e+00 8.65201e+07
2.33006e+00 8.76311e+07
2.35707e+00 8.87579e+07
2.38439e+00 8.99007e+07
2.41203e+00 9.10599e+07
2.43999e+00 9.22357e+07
2.46827e+00 9.34283e+07
2.49688e+00 9.46380e+07
2.52582e+00 9.58651e+07
2.55510e+00 9.71099e+07
2.58471e+00 9.83726e+07
2.61467e+00 9.96535e+07
2.64498e+00 1.00953e+08
2.67564e+00 1.02271e+08
2.70665e+00 1.03608e+08
2.73803e+00 1.04965e+08
2.76976e+00 1.06341e+08
2.80187e+00 1.07737e+08
2.83434e+00 1.09154e+08
2.86720e+00 1.10591e+08
2.90043e+00 1.12049e+08
2.93405e+00 1.13529e+08
2.96806e+00 1.15030e+08
3.00246e+00 1.16553e+08
3.03726e+00 1.18098e+08
3.07247e+00 1.19667e+08
3.10808e+00 1.21258e+08
3.14411e+00 1.22872e+08
3.18055e+00 1.24510e+08
3.21742e+00 1.26173e+08
3.25471e+00 1.27860e+08
3.29244e+00 1.29571e+08
3.33060e+00 1.31308e+08
3.36921e+00 1.33071e+08
3.40826e+00 1.34860e+08
3.44776e+00 1.36676e+08
3.48773e+00 1.38518e+08
3.52815e+00 1.40388e+08
3.56905e+00 1.42285e+08
3.61042e+00 1.44211e+08
3.65227e+00 1.46166e+08
3.69460e+00 1.48150e+08
3.73743e+00 1.50163e+08
3.78075e+00 1.52207e+08
3.82457e+00 1.54281e+08
3.86890e+00 1.56386e+08
3.91375e+00 1.58523e+08
3.95911e+00 1.60691e+08
4.00500e+00 1.62893e+08
4.05142e+00 1.65127e+08
4.09838e+00 1.67395e+08
4.14589e+00 1.69698e+08
4.19394e+00 1.72035e+08
4.24256e+00 1.74407e+08
4.29173e+00 1.76815e+08
4.34148e+00 1.79260e+08
4.39180e+00 1.81741e+08
4.44271e+00 1.84260e+08
4.49420e+00 1.86817e+08
4.54630e+00 1.89413e+08
4.59899e+00 1.92048e+08
4.65230e+00 1.94723e+08
4.70622e+00 1.97439e+08
4.76078e+00 2.00196e+08
4.81596e+00 2.02996e+08
4.87178e+00 2.05837e+08
4.92825e+00 2.08722e+08
4.98537e+00 2.11651e+08
5.04316e+00 2.14624e+08
5.10162e+00 2.17643e+08
5.16075e+00 2.20708e+08
5.22057e+00 2.23820e+08
5.28108e+00 2.26979e+08
5.34229e+00 2.30186e+08
5.40422e+00 2.33442e+08
5.46686e+00 2.36748e+08
5.53022e+00 2.40105e+08
5.59433e+00 2.43513e+08
5.65917e+00 2.46973e+08
5.72477e+00 2.50486e+08
5.79112e+00 2.54053e+08
5.85825e+00 2.57674e+08
5.92615e+00 2.61351e+08
5.99484e+00 2.65084e+08
6.06433e+00 2.68874e+08
6.13462e+00 2.72723e+08
6.20573e+00 2.76630e+08
6.27766e+00 2.80597e+08
6.35043e+00 2.84624e+08
6.42403e+00 2.88714e+08
6.49850e+00 2.92865e+08
6.57382e+00 2.97081e+08
6.65002e+00 3.01361e+08
6.72710e+00 3.05706e+08
6.80507e+00 3.10118e+08
6.88395e+00 3.14597e+08
6.96374e+00 3.19145e+08
7.04446e+00 3.23762e+08
7.12612e+00 3.28449e+08
7.20872e+00 3.33208e+08
7.29227e+00 3.38040e+08
7.37680e+00 3.42945e+08
7.46230e+00 3.47925e+08
7.54880e+00 3.52981e+08
7.63630e+00 3.58114e+08
7.72481e+00 3.63325e+08
7.81435e+00 3.68615e+08
7.90493e+00 3.73985e+08
7.99655e+00 3.79436e+08
8.08924e+00 3.84971e+08
8.18301e+00 3.90589e+08
8.27786e+00 3.96292e+08
8.37381e+00 4.02081e+08
8.47087e+00 4.07957e+08
8.56906e+00 4.13922e+08
8.66838e+00 4.19977e+08
8.76886e+00 4.26123e+08
8.87050e+00 4.32361e+08
8.97332e+00 4.38692e+08
9.07733e+00 4.45119e+08
9.18254e+00 4.51641e+08
9.28898e+00 4.58261e+08
9.39665e+00 4.64979e+08
9.50557e+00 4.71798e+08
9.61575e+00 4.78718e+08
9.72720e+00 4.85740e+08
9.83995e+00 4.92866e+08
9.95401e+00 5.00098e+08
1.00694e+01 5.07437e+08
1.01861e+01 5.14883e+08
1.03042e+01 5.22439e+08
1.04236e+01 5.30106e+08
1.05444e+01 5.37885e+08
1.06666e+01 5.45778e+08
1.07903e+01 5.53785e+08
1.09154e+01 5.61910e+08
1.10419e+01 5.70152e+08
1.11699e+01 5.78513e+08
1.12993e+01 5.86995e+08
1.14303e+01 5.95600e+08
1.15628e+01 6.04328e+08
1.16968e+01 6.13182e+08
1.18324e+01 6.22162e+08
1.19696e+01 6.31270e+08
1.21083e+01 6.40508e+08
1.22486e+01 6.49877e+08
1.23906e+01 6.59379e+08
1.25342e+01 6.69015e+08
1.26795e+01 6.78787e+08
1.28265e+01 6.88696e+08
1.29752e+01 6.98744e+08
1.31256e+01 7.08932e+08
1.32777e+01 7.19263e+08
1.34316e+01 7.29737e+08
1.35873e+01 7.40356e+08
1.37448e+01 7.51122e+08
1.39041e+01 7.62036e+08
1.40653e+01 7.73101e+08
1.42283e+01 7.84317e+08
1.43932e+01 7.95686e+08
1.45601e+01 8.07211e+08
1.47288e+01 8.18892e+08
1.48996e+01 8.30731e+08
1.50723e+01 8.42731e+08
1.52470e+01 8.54893e+08
1.54237e+01 8.67218e+08
1.56025e+01 8.79709e+08
1.57833e+01 8.92368e+08
1.59663e+01 9.05195e+08
1.61513e+01 9.18193e+08
1.63385e+01 9.31365e+08
1.65279e+01 9.44711e+08
1.67195e+01 9.58234e+08
1.69133e+01 9.71936e+08
1.71093e+01 9.85819e+08
1.73077e+01 9.99886e+08
1.75083e+01 1.01414e+09
1.77112e+01 1.02858e+09
1.79165e+01 1.04320e+09
1.81242e+01 1.05802e+09
1.83343e+01 1.07304e+09
1.85468e+01 1.08825e+09
1.87617e+01 1.10366e+09
1.89792e+01 1.11927e+09
1.91992e+01 1.13509e+09
1.94217e+01 1.15111e+09
1.96469e+01 1.16735e+09
1.98746e+01 1.18380e+09
2.01050e+01 1.20046e+09
2.03380e+01 1.21734e+09
2.05737e+01 1.23445e+09
2.08122e+01 1.25178e+09
2.10535e+01 1.26934e+09
2.12975e+01 1.28714e+09
2.15443e+01 1.30517e+09
2.17941e+01 1.32345e+09
2.20467e+01 1.34197e+09
2.23022e+01 1.36074e+09
2.25607e+01 1.37977e+09
2.28222e+01 1.39905e+09
2.30868e+01 1.41860e+09
2.33544e+01 1.43842e+09
2.36251e+01 1.45851e+09
2.38989e+01 1.47888e+09
2.41759e+01 1.49953e+09
2.44562e+01 1.52048e+09
2.47396e+01 1.54172e+09
2.50264e+01 1.56327e+09
2.53165e+01 1.58512e+09
2.56099e+01 1.60729e+09
2.59068e+01 1.62979e+09
2.62071e+01 1.65262e+09
2.65108e+01 1.67578e+09
2.68181e+01 1.69929e+09
2.71290e+01 1.72316e+09
2.74434e+01 1.74739e+09
2.77615e+01 1.77199e+09
2.80833e+01 1.79697e+09
2.84088e+01 1.82234e+09
2.87381e+01 1.84812e+09
2.90712e+01 1.87430e+09
2.94082e+01 1.90091e+09
2.97491e+01 1.92795e+09
3.00939e+01 1.95544e+09
3.04427e+01 1.98338e+09
3.07956e+01 2.01178e+09
3.11525e+01 2.04067e+09
3.15136e+01 2.07005e+09
3.18789e+01 2.09994e+09
3.22484e+01 2.13035e+09
3.26222e+01 2.16129e+09
3.30003e+01 2.19278e+09
3.33829e+01 2.22483e+09
3.37698e+01 2.25746e+09
3.41612e+01 2.29068e+09
3.45572e+01 2.32452e+09
3.49578e+01 2.35898e+09
3.53630e+01 2.39408e+09
3.57729e+01 2.42985e+09
3.61875e+01 2.46629e+09
3.66070e+01 2.50343e+09
3.70313e+01 2.54128e+09
3.74605e+01 2.57986e+09
3.78947e+01 2.61920e+09
3.83340e+01 2.65930e+09
3.87783e+01 2.70019e+09
3.92278e+01 2.74189e+09
3.96825e+01 2.78442e+09
4.01424e+01 2.82780e+09
4.06077e+01 2.87203e+09
4.10784e+01 2.91704e+09
4.15546e+01 2.96289e+09
4.20362e+01 3.00960e+09
4.25235e+01 3.05723e+09
4.30164e+01 3.10582e+09
4.35150e+01 3.15539e+09
4.40194e+01 3.20599e+09
4.45296e+01 3.25765e+09
4.50457e+01 3.31041e+09
4.55679e+01 3.36428e+09
4.60960e+01 3.41931e+09
4.66303e+01 3.47551e+09
4.71708e+01 3.53292e+09
4.77176e+01 3.59157e+09
4.82707e+01 3.65147e+09
4.88302e+01 3.71265e+09
4.93962e+01 3.77513e+09
4.99688e+01 3.83894e+09
5.05480e+01 3.90411e+09
5.11339e+01 3.97068e+09
5.17266e+01 4.03866e+09
5.23261e+01 4.10809e+09
5.29327e+01 4.17897e+09
5.35462e+01 4.25133e+09
5.41669e+01 4.32519e+09
5.47947e+01 4.40056e+09
5.54299e+01 4.47747e+09
5.60723e+01 4.55593e+09
5.67223e+01 4.63597e+09
5.73798e+01 4.71760e+09
5.80449e+01 4.80085e+09
5.87177e+01 4.88573e+09
5.93983e+01 4.97227e+09
6.00868e+01 5.06048e+09
6.07832e+01 5.15039e+09
6.14878e+01 5.24203e+09
6.22005e+01 5.33541e+09
6.29215e+01 5.43056e+09
6.36508e+01 5.52751e+09
6.43886e+01 5.62628e+09
6.51349e+01 5.72690e+09
6.58899e+01 5.82940e+09
6.66536e+01 5.93380e+09
6.74262e+01 6.04015e+09
6.82078e+01 6.14845e+09
6.89984e+01 6.25876e+09
6.97981e+01 6.37111e+09
7.06072e+01 6.48552e+09
7.14256e+01 6.60203e+09
7.22535e+01 6.72068e+09
7.30910e+01 6.84151e+09
7.39382e+01 6.96455e+09
7.47952e+01 7.08985e+09
7.56622e+01 7.21745e+09
7.65392e+01 7.34738e+09
7.74264e+01 7.47969e+09
7.83238e+01 7.61443e+09
7.92317e+01 7.75164e+09
8.01501e+01 7.89135e+09
8.10791e+01 8.03363e+09
8.20189e+01 8.17852e+09
8.29696e+01 8.32606e+09
8.39313e+01 8.47630e+09
8.49042e+01 8.62930e+09
8.58883e+01 8.78510e+09
8.68838e+01 8.94376e+09
8.78909e+01 9.10532e+09
8.89097e+01 9.26985e+09
8.99402e+01 9.43739e+09
9.09827e+01 9.60799e+09
9.20373e+01 9.78172e+09
9.31041e+01 9.95862e+09
9.41833e+01 1.01388e+10
9.52750e+01 1.03222e+10
9.63793e+01 1.05089e+10
9.74965e+01 1.06991e+10
9.86266e+01 1.08927e+10
9.97698e+01 1.10899e+10
1.00926e+02 1.12907e+10
1.02096e+02 1.14953e+10
1.03279e+02 1.17038e+10
1.04477e+02 1.19164e+10
1.05688e+02 1.21330e+10
1.06913e+02 1.23539e+10
1.08152e+02 1.25790e+10
1.09405e+02 1.28085e+10
1.10674e+02 1.30424e+10
1.11956e+02 1.32808e+10
1.13254e+02 1.35239e+10
1.14567e+02 1.37718e+10
1.15895e+02 1.40244e+10
1.17238e+02 1.42820e+10
1.18597e+02 1.45447e+10
1.19972e+02 1.48125e+10
1.21362e+02 1.50855e+10
1.22769e+02 1.53639e+10
1.24192e+02 1.56477e+10
1.25632e+02 1.59371e+10
1.27088e+02 1.62322e+10
1.28561e+02 1.65331e+10
1.30051e+02 1.68399e+10
1.31559e+02 1.71528e+10
1.33083e+02 1.74718e+10
1.34626e+02 1.77970e+10
1.36187e+02 1.81287e+10
1.37765e+02 1.84669e+10
1.39362e+02 1.88118e+10
1.40977e+02 1.91634e+10
1.42611e+02 1.95220e+10
1.44264e+02 1.98877e+10
