T[eV]        κe[W/(keVcm)]
1.00000e-02 3.37796e+05
1.01159e-02 3.40812e+05
1.02332e-02 3.43857e+05
1.03518e-02 3.46931e+05
1.04718e-02 3.50033e+05
1.05931e-02 3.53165e+05
1.07159e-02 3.56327e+05
1.08401e-02 3.59518e+05
1.09658e-02 3.62740e+05
1.10929e-02 3.65992e+05
1.12215e-02 3.69275e+05
1.13515e-02 3.72589e+05
1.14831e-02 3.75935e+05
1.16162e-02 3.79313e+05
1.17509e-02 3.82723e+05
1.18871e-02 3.86165e+05
1.20249e-02 3.89640e+05
1.21642e-02 3.93148e+05
1.23052e-02 3.96689e+05
1.24479e-02 4.00265e+05
1.25922e-02 4.03874e+05
1.27381e-02 4.07518e+05
1.28858e-02 4.11197e+05
1.30351e-02 4.14911e+05
1.31862e-02 4.18660e+05
1.33391e-02 4.22446e+05
1.34937e-02 4.26268e+05
1.36501e-02 4.30126e+05
1.38083e-02 4.34021e+05
1.39684e-02 4.37954e+05
1.41303e-02 4.41925e+05
1.42940e-02 4.45934e+05
1.44597e-02 4.49981e+05
1.46273e-02 4.54067e+05
1.47969e-02 4.58193e+05
1.49684e-02 4.62359e+05
1.51419e-02 4.66564e+05
1.53174e-02 4.70811e+05
1.54950e-02 4.75098e+05
1.56746e-02 4.79427e+05
1.58562e-02 4.83797e+05
1.60400e-02 4.88210e+05
1.62260e-02 4.92666e+05
1.64140e-02 4.97165e+05
1.66043e-02 5.01707e+05
1.67967e-02 5.06294e+05
1.69914e-02 5.10925e+05
1.71884e-02 5.15601e+05
1.73876e-02 5.20323e+05
1.75892e-02 5.25090e+05
1.77930e-02 5.29904e+05
1.79993e-02 5.34765e+05
1.82079e-02 5.39673e+05
1.84190e-02 5.44630e+05
1.86325e-02 5.49634e+05
1.88484e-02 5.54688e+05
1.90669e-02 5.59791e+05
1.92879e-02 5.64944e+05
1.95115e-02 5.70147e+05
1.97376e-02 5.75401e+05
1.99664e-02 5.80707e+05
2.01979e-02 5.86065e+05
2.04320e-02 5.91476e+05
2.06688e-02 5.96939e+05
2.09084e-02 6.02457e+05
2.11507e-02 6.08028e+05
2.13959e-02 6.13655e+05
2.16439e-02 6.19337e+05
2.18948e-02 6.25075e+05
2.21486e-02 6.30870e+05
2.24053e-02 6.36722e+05
2.26650e-02 6.42632e+05
2.29277e-02 6.48600e+05
2.31935e-02 6.54627e+05
2.34623e-02 6.60714e+05
2.37342e-02 6.66861e+05
2.40093e-02 6.73070e+05
2.42876e-02 6.79340e+05
2.45692e-02 6.85672e+05
2.48539e-02 6.92067e+05
2.51420e-02 6.98526e+05
2.54335e-02 7.05049e+05
2.57283e-02 7.11637e+05
2.60265e-02 7.18291e+05
2.63282e-02 7.25011e+05
2.66333e-02 7.31798e+05
2.69420e-02 7.38653e+05
2.72543e-02 7.45577e+05
2.75702e-02 7.52570e+05
2.78898e-02 7.59633e+05
2.82131e-02 7.66766e+05
2.85401e-02 7.73972e+05
2.88709e-02 7.81249e+05
2.92056e-02 7.88600e+05
2.95441e-02 7.96025e+05
2.98865e-02 8.03524e+05
3.02329e-02 8.11099e+05
3.05834e-02 8.18750e+05
3.09379e-02 8.26479e+05
3.12965e-02 8.34285e+05
3.16592e-02 8.42170e+05
3.20262e-02 8.50135e+05
3.23974e-02 8.58181e+05
3.27729e-02 8.66308e+05
3.31528e-02 8.74517e+05
3.35371e-02 8.82810e+05
3.39258e-02 8.91186e+05
3.43191e-02 8.99648e+05
3.47169e-02 9.08196e+05
3.51193e-02 9.16831e+05
3.55263e-02 9.25554e+05
3.59381e-02 9.34365e+05
3.63547e-02 9.43266e+05
3.67761e-02 9.52259e+05
3.72024e-02 9.61343e+05
3.76336e-02 9.70520e+05
3.80698e-02 9.79791e+05
3.85111e-02 9.89156e+05
3.89575e-02 9.98618e+05
3.94090e-02 1.00818e+06
3.98658e-02 1.01783e+06
4.03279e-02 1.02759e+06
4.07953e-02 1.03745e+06
4.12682e-02 1.04740e+06
4.17466e-02 1.05746e+06
4.22304e-02 1.06763e+06
4.27199e-02 1.07790e+06
4.32151e-02 1.08827e+06
4.37160e-02 1.09875e+06
4.42227e-02 1.10934e+06
4.47353e-02 1.12004e+06
4.52539e-02 1.13086e+06
4.57784e-02 1.14178e+06
4.63090e-02 1.15282e+06
4.68458e-02 1.16397e+06
4.73888e-02 1.17523e+06
4.79381e-02 1.18662e+06
4.84937e-02 1.19812e+06
4.90558e-02 1.20974e+06
4.96244e-02 1.22149e+06
5.01997e-02 1.23335e+06
5.07815e-02 1.24534e+06
5.13701e-02 1.25746e+06
5.19656e-02 1.26970e+06
5.25679e-02 1.28207e+06
5.31772e-02 1.29457e+06
5.37936e-02 1.30720e+06
5.44171e-02 1.31997e+06
5.50479e-02 1.33287e+06
5.56860e-02 1.34590e+06
5.63314e-02 1.35907e+06
5.69844e-02 1.37238e+06
5.76449e-02 1.38583e+06
5.83131e-02 1.39943e+06
5.89890e-02 1.41316e+06
5.96727e-02 1.42704e+06
6.03644e-02 1.44107e+06
6.10641e-02 1.45525e+06
6.17719e-02 1.46958e+06
6.24879e-02 1.48406e+06
6.32122e-02 1.49869e+06
6.39449e-02 1.51348e+06
6.46861e-02 1.52843e+06
6.54359e-02 1.54354e+06
6.61943e-02 1.55880e+06
6.69616e-02 1.57423e+06
6.77378e-02 1.58983e+06
6.85229e-02 1.60559e+06
6.93172e-02 1.62152e+06
7.01206e-02 1.63763e+06
7.09334e-02 1.65390e+06
7.17556e-02 1.67035e+06
7.25873e-02 1.68698e+06
7.34287e-02 1.70378e+06
7.42798e-02 1.72077e+06
7.51408e-02 1.73793e+06
7.60118e-02 1.75529e+06
7.68928e-02 1.77283e+06
7.77841e-02 1.79056e+06
7.86857e-02 1.80849e+06
7.95978e-02 1.82660e+06
8.05204e-02 1.84492e+06
8.14537e-02 1.86343e+06
8.23979e-02 1.88214e+06
8.33529e-02 1.90106e+06
8.43191e-02 1.92018e+06
8.52964e-02 1.93951e+06
8.62851e-02 1.95906e+06
8.72853e-02 1.97881e+06
8.82970e-02 1.99878e+06
8.93205e-02 2.01897e+06
9.03558e-02 2.03938e+06
9.14031e-02 2.06002e+06
9.24626e-02 2.08088e+06
9.35343e-02 2.10197e+06
9.46185e-02 2.12329e+06
9.57152e-02 2.14485e+06
9.68247e-02 2.16664e+06
9.79470e-02 2.18867e+06
9.90823e-02 2.21095e+06
1.00231e-01 2.23348e+06
1.01393e-01 2.25625e+06
1.02568e-01 2.27927e+06
1.03757e-01 2.30255e+06
1.04959e-01 2.32609e+06
1.06176e-01 2.34989e+06
1.07407e-01 2.37396e+06
1.08652e-01 2.39829e+06
1.09911e-01 2.42289e+06
1.11185e-01 2.44777e+06
1.12474e-01 2.47292e+06
1.13777e-01 2.49836e+06
1.15096e-01 2.52408e+06
1.16430e-01 2.55009e+06
1.17780e-01 2.57639e+06
1.19145e-01 2.60299e+06
1.20526e-01 2.62988e+06
1.21923e-01 2.65708e+06
1.23336e-01 2.68458e+06
1.24766e-01 2.71240e+06
1.26212e-01 2.74053e+06
1.27675e-01 2.76897e+06
1.29155e-01 2.79774e+06
1.30652e-01 2.82683e+06
1.32166e-01 2.85625e+06
1.33698e-01 2.88601e+06
1.35248e-01 2.91610e+06
1.36816e-01 2.94654e+06
1.38402e-01 2.97732e+06
1.40006e-01 3.00846e+06
1.41629e-01 3.03995e+06
1.43270e-01 3.07180e+06
1.44931e-01 3.10401e+06
1.46611e-01 3.13659e+06
1.48310e-01 3.16954e+06
1.50029e-01 3.20288e+06
1.51768e-01 3.23659e+06
1.53528e-01 3.27070e+06
1.55307e-01 3.30519e+06
1.57107e-01 3.34009e+06
1.58928e-01 3.37538e+06
1.60770e-01 3.41108e+06
1.62634e-01 3.44720e+06
1.64519e-01 3.48374e+06
1.66426e-01 3.52069e+06
1.68355e-01 3.55808e+06
1.70307e-01 3.59590e+06
1.72281e-01 3.63416e+06
1.74277e-01 3.67287e+06
1.76298e-01 3.71203e+06
1.78341e-01 3.75164e+06
1.80408e-01 3.79172e+06
1.82499e-01 3.83226e+06
1.84615e-01 3.87328e+06
1.86755e-01 3.91479e+06
1.88919e-01 3.95678e+06
1.91109e-01 3.99926e+06
1.93324e-01 4.04224e+06
1.95565e-01 4.08573e+06
1.97832e-01 4.12973e+06
2.00125e-01 4.17425e+06
2.02445e-01 4.21930e+06
2.04791e-01 4.26488e+06
2.07165e-01 4.31100e+06
2.09566e-01 4.35766e+06
2.11995e-01 4.40489e+06
2.14453e-01 4.45267e+06
2.16938e-01 4.50102e+06
2.19453e-01 4.54995e+06
2.21997e-01 4.59946e+06
2.24570e-01 4.64956e+06
2.27173e-01 4.70027e+06
2.29806e-01 4.75158e+06
2.32470e-01 4.80350e+06
2.35164e-01 4.85605e+06
2.37890e-01 4.90923e+06
2.40648e-01 4.96305e+06
2.43437e-01 5.01752e+06
2.46259e-01 5.07265e+06
2.49113e-01 5.12844e+06
2.52000e-01 5.18491e+06
2.54921e-01 5.24206e+06
2.57876e-01 5.29990e+06
2.60865e-01 5.35844e+06
2.63889e-01 5.41770e+06
2.66948e-01 5.47768e+06
2.70042e-01 5.53839e+06
2.73172e-01 5.59984e+06
2.76339e-01 5.66204e+06
2.79542e-01 5.72500e+06
2.82782e-01 5.78873e+06
2.86060e-01 5.85324e+06
2.89375e-01 5.91854e+06
2.92729e-01 5.98465e+06
2.96123e-01 6.05157e+06
2.99555e-01 6.11931e+06
3.03027e-01 6.18789e+06
3.06540e-01 6.25732e+06
3.10093e-01 6.32760e+06
3.13687e-01 6.39876e+06
3.17323e-01 6.47079e+06
3.21001e-01 6.54372e+06
3.24722e-01 6.61756e+06
3.28486e-01 6.69232e+06
3.32293e-01 6.76800e+06
3.36145e-01 6.84463e+06
3.40041e-01 6.92222e+06
3.43983e-01 7.00078e+06
3.47970e-01 7.08032e+06
3.52003e-01 7.16086e+06
3.56083e-01 7.24241e+06
3.60211e-01 7.32498e+06
3.64386e-01 7.40860e+06
3.68610e-01 7.49326e+06
3.72882e-01 7.57900e+06
3.77204e-01 7.66582e+06
3.81576e-01 7.75373e+06
3.85999e-01 7.84276e+06
3.90474e-01 7.93292e+06
3.95000e-01 8.02422e+06
3.99578e-01 8.11668e+06
4.04210e-01 8.21032e+06
4.08895e-01 8.30515e+06
4.13634e-01 8.40119e+06
4.18429e-01 8.49846e+06
4.23279e-01 8.59697e+06
4.28185e-01 8.69675e+06
4.33148e-01 8.79780e+06
4.38169e-01 8.90015e+06
4.43248e-01 9.00381e+06
4.48386e-01 9.10881e+06
4.53583e-01 9.21516e+06
4.58840e-01 9.32289e+06
4.64159e-01 9.43200e+06
4.69539e-01 9.54253e+06
4.74981e-01 9.65449e+06
4.80487e-01 9.76790e+06
4.86056e-01 9.88278e+06
4.91690e-01 9.99915e+06
4.97390e-01 1.01170e+07
5.03155e-01 1.02365e+07
5.08987e-01 1.03574e+07
5.14887e-01 1.04800e+07
5.20855e-01 1.06042e+07
5.26892e-01 1.07300e+07
5.32999e-01 1.08574e+07
5.39177e-01 1.09865e+07
5.45427e-01 1.11173e+07
5.51749e-01 1.12498e+07
5.58145e-01 1.13841e+07
5.64614e-01 1.15202e+07
5.71159e-01 1.16580e+07
5.77779e-01 1.17977e+07
5.84476e-01 1.19392e+07
5.91251e-01 1.20826e+07
5.98104e-01 1.22279e+07
6.05037e-01 1.23751e+07
6.12050e-01 1.25243e+07
6.19144e-01 1.26754e+07
6.26321e-01 1.28286e+07
6.33580e-01 1.29838e+07
6.40924e-01 1.31411e+07
6.48353e-01 1.33005e+07
6.55869e-01 1.34620e+07
6.63471e-01 1.36257e+07
6.71161e-01 1.37916e+07
6.78941e-01 1.39597e+07
6.86810e-01 1.41301e+07
6.94771e-01 1.43028e+07
7.02824e-01 1.44778e+07
7.10971e-01 1.46552e+07
7.19212e-01 1.48349e+07
7.27548e-01 1.50171e+07
7.35981e-01 1.52018e+07
7.44512e-01 1.53889e+07
7.53142e-01 1.55786e+07
7.61872e-01 1.57709e+07
7.70703e-01 1.59658e+07
7.79636e-01 1.61633e+07
7.88673e-01 1.63636e+07
7.97814e-01 1.65665e+07
8.07062e-01 1.67722e+07
8.16417e-01 1.69808e+07
8.25880e-01 1.71922e+07
8.35453e-01 1.74065e+07
8.45137e-01 1.76237e+07
8.54933e-01 1.78439e+07
8.64842e-01 1.80671e+07
8.74867e-01 1.82934e+07
8.85007e-01 1.85228e+07
8.95266e-01 1.87554e+07
9.05643e-01 1.89912e+07
9.16140e-01 1.92302e+07
9.26759e-01 1.94725e+07
9.37502e-01 1.97182e+07
9.48368e-01 1.99673e+07
9.59361e-01 2.02198e+07
9.70481e-01 2.04758e+07
9.81730e-01 2.07354e+07
9.93109e-01 2.09985e+07
1.00462e+00 2.12654e+07
1.01627e+00 2.15359e+07
1.02804e+00 2.18102e+07
1.03996e+00 2.20883e+07
1.05202e+00 2.23703e+07
1.06421e+00 2.26562e+07
1.07654e+00 2.29461e+07
1.08902e+00 2.32400e+07
1.10165e+00 2.35381e+07
1.11442e+00 2.38403e+07
1.12733e+00 2.41467e+07
1.14040e+00 2.44575e+07
1.15362e+00 2.47726e+07
1.16699e+00 2.50921e+07
1.18052e+00 2.54160e+07
1.19420e+00 2.57446e+07
1.20804e+00 2.60777e+07
1.22204e+00 2.64155e+07
1.23621e+00 2.67581e+07
1.25054e+00 2.71055e+07
1.26503e+00 2.74577e+07
1.27970e+00 2.78149e+07
1.29453e+00 2.81772e+07
1.30954e+00 2.85445e+07
1.32471e+00 2.89170e+07
1.34007e+00 2.92948e+07
1.35560e+00 2.96779e+07
1.37131e+00 3.00664e+07
1.38721e+00 3.04604e+07
1.40329e+00 3.08599e+07
1.41955e+00 3.12651e+07
1.43601e+00 3.16760e+07
1.45265e+00 3.20926e+07
1.46949e+00 3.25152e+07
1.48652e+00 3.29438e+07
1.50376e+00 3.33784e+07
1.52119e+00 3.38191e+07
1.53882e+00 3.42661e+07
1.55665e+00 3.47193e+07
1.57470e+00 3.51790e+07
1.59295e+00 3.56452e+07
1.61141e+00 3.61180e+07
1.63009e+00 3.65974e+07
1.64899e+00 3.70836e+07
1.66810e+00 3.75767e+07
1.68744e+00 3.80768e+07
1.70699e+00 3.85839e+07
1.72678e+00 3.90981e+07
1.74680e+00 3.96197e+07
1.76704e+00 4.01486e+07
1.78753e+00 4.06849e+07
1.80824e+00 4.12289e+07
1.82920e+00 4.17805e+07
1.85041e+00 4.23399e+07
1.87186e+00 4.29071e+07
1.89355e+00 4.34824e+07
1.91550e+00 4.40657e+07
1.93770e+00 4.46573e+07
1.96016e+00 4.52572e+07
1.98288e+00 4.58655e+07
2.00587e+00 4.64824e+07
2.02912e+00 4.71080e+07
2.05264e+00 4.77423e+07
2.07643e+00 4.83856e+07
2.10050e+00 4.90378e+07
2.12485e+00 4.96992e+07
2.14947e+00 5.03699e+07
2.17439e+00 5.10500e+07
2.19959e+00 5.17395e+07
2.22509e+00 5.24388e+07
2.25088e+00 5.31478e+07
2.27697e+00 5.38666e+07
2.30336e+00 5.45955e+07
2.33006e+00 5.53346e+07
2.35707e+00 5.60840e+07
2.38439e+00 5.68438e+07
2.41203e+00 5.76141e+07
2.43999e+00 5.83952e+07
2.46827e+00 5.91871e+07
2.49688e+00 5.99900e+07
2.52582e+00 6.08040e+07
2.55510e+00 6.16292e+07
2.58471e+00 6.24659e+07
2.61467e+00 6.33142e+07
2.64498e+00 6.41741e+07
2.67564e+00 6.50460e+07
2.70665e+00 6.59298e+07
2.73803e+00 6.68258e+07
2.76976e+00 6.77341e+07
2.80187e+00 6.86549e+07
2.83434e+00 6.95884e+07
2.86720e+00 7.05346e+07
2.90043e+00 7.14938e+07
2.93405e+00 7.24662e+07
2.96806e+00 7.34519e+07
3.00246e+00 7.44510e+07
3.03726e+00 7.54638e+07
3.07247e+00 7.64904e+07
3.10808e+00 7.75310e+07
3.14411e+00 7.85858e+07
3.18055e+00 7.96549e+07
3.21742e+00 8.07386e+07
3.25471e+00 8.18371e+07
3.29244e+00 8.29504e+07
3.33060e+00 8.40790e+07
3.36921e+00 8.52228e+07
3.40826e+00 8.63822e+07
3.44776e+00 8.75572e+07
3.48773e+00 8.87483e+07
3.52815e+00 8.99555e+07
3.56905e+00 9.11791e+07
3.61042e+00 9.24192e+07
3.65227e+00 9.36762e+07
3.69460e+00 9.49502e+07
3.73743e+00 9.62416e+07
3.78075e+00 9.75504e+07
3.82457e+00 9.88770e+07
3.86890e+00 1.00222e+08
3.91375e+00 1.01585e+08
3.95911e+00 1.02966e+08
4.00500e+00 1.04366e+08
4.05142e+00 1.05786e+08
4.09838e+00 1.07224e+08
4.14589e+00 1.08683e+08
4.19394e+00 1.10161e+08
4.24256e+00 1.11660e+08
4.29173e+00 1.13179e+08
4.34148e+00 1.14719e+08
4.39180e+00 1.16280e+08
4.44271e+00 1.17863e+08
4.49420e+00 1.19467e+08
4.54630e+00 1.21094e+08
4.59899e+00 1.22744e+08
4.65230e+00 1.24416e+08
4.70622e+00 1.26112e+08
4.76078e+00 1.27831e+08
4.81596e+00 1.29575e+08
4.87178e+00 1.31344e+08
4.92825e+00 1.33137e+08
4.98537e+00 1.34956e+08
5.04316e+00 1.36801e+08
5.10162e+00 1.38672e+08
5.16075e+00 1.40570e+08
5.22057e+00 1.42496e+08
5.28108e+00 1.44449e+08
5.34229e+00 1.46431e+08
5.40422e+00 1.48442e+08
5.46686e+00 1.50483e+08
5.53022e+00 1.52554e+08
5.59433e+00 1.54656e+08
5.65917e+00 1.56789e+08
5.72477e+00 1.58954e+08
5.79112e+00 1.61152e+08
5.85825e+00 1.63383e+08
5.92615e+00 1.65649e+08
5.99484e+00 1.67949e+08
6.06433e+00 1.70285e+08
6.13462e+00 1.72657e+08
6.20573e+00 1.75067e+08
6.27766e+00 1.77515e+08
6.35043e+00 1.80001e+08
6.42403e+00 1.82527e+08
6.49850e+00 1.85094e+08
6.57382e+00 1.87703e+08
6.65002e+00 1.90354e+08
6.72710e+00 1.93048e+08
6.80507e+00 1.95787e+08
6.88395e+00 1.98572e+08
6.96374e+00 2.01403e+08
7.04446e+00 2.04282e+08
7.12612e+00 2.07210e+08
7.20872e+00 2.10188e+08
7.29227e+00 2.13216e+08
7.37680e+00 2.16298e+08
7.46230e+00 2.19433e+08
7.54880e+00 2.22622e+08
7.63630e+00 2.25868e+08
7.72481e+00 2.29172e+08
7.81435e+00 2.32534e+08
7.90493e+00 2.35956e+08
7.99655e+00 2.39440e+08
8.08924e+00 2.42988e+08
8.18301e+00 2.46600e+08
8.27786e+00 2.50277e+08
8.37381e+00 2.54023e+08
8.47087e+00 2.57838e+08
8.56906e+00 2.61723e+08
8.66838e+00 2.65681e+08
8.76886e+00 2.69712e+08
8.87050e+00 2.73820e+08
8.97332e+00 2.78004e+08
9.07733e+00 2.82268e+08
9.18254e+00 2.86612e+08
9.28898e+00 2.91038e+08
9.39665e+00 2.95549e+08
9.50557e+00 3.00145e+08
9.61575e+00 3.04830e+08
9.72720e+00 3.09603e+08
9.83995e+00 3.14468e+08
9.95401e+00 3.19425e+08
1.00694e+01 3.24478e+08
1.01861e+01 3.29627e+08
1.03042e+01 3.34874e+08
1.04236e+01 3.40221e+08
1.05444e+01 3.45670e+08
1.06666e+01 3.51223e+08
1.07903e+01 3.56881e+08
1.09154e+01 3.62646e+08
1.10419e+01 3.68520e+08
1.11699e+01 3.74504e+08
1.12993e+01 3.80600e+08
1.14303e+01 3.86810e+08
1.15628e+01 3.93136e+08
1.16968e+01 3.99578e+08
1.18324e+01 4.06139e+08
1.19696e+01 4.12820e+08
1.21083e+01 4.19623e+08
1.22486e+01 4.26548e+08
1.23906e+01 4.33598e+08
1.25342e+01 4.40774e+08
1.26795e+01 4.48078e+08
1.28265e+01 4.55510e+08
1.29752e+01 4.63072e+08
1.31256e+01 4.70765e+08
1.32777e+01 4.78591e+08
1.34316e+01 4.86550e+08
1.35873e+01 4.94645e+08
1.37448e+01 5.02876e+08
1.39041e+01 5.11245e+08
1.40653e+01 5.19753e+08
1.42283e+01 5.28401e+08
1.43932e+01 5.37190e+08
1.45601e+01 5.46122e+08
1.47288e+01 5.55198e+08
1.48996e+01 5.64419e+08
1.50723e+01 5.73787e+08
1.52470e+01 5.83304e+08
1.54237e+01 5.92970e+08
1.56025e+01 6.02787e+08
1.57833e+01 6.12758e+08
1.59663e+01 6.22882e+08
1.61513e+01 6.33163e+08
1.63385e+01 6.43603e+08
1.65279e+01 6.54202e+08
1.67195e+01 6.64964e+08
1.69133e+01 6.75889e+08
1.71093e+01 6.86982e+08
1.73077e+01 6.98243e+08
1.75083e+01 7.09676e+08
1.77112e+01 7.21283e+08
1.79165e+01 7.33066e+08
1.81242e+01 7.45029e+08
1.83343e+01 7.57174e+08
1.85468e+01 7.69506e+08
1.87617e+01 7.82026e+08
1.89792e+01 7.94738e+08
1.91992e+01 8.07646e+08
1.94217e+01 8.20753e+08
1.96469e+01 8.34063e+08
1.98746e+01 8.47580e+08
2.01050e+01 8.61309e+08
2.03380e+01 8.75252e+08
2.05737e+01 8.89414e+08
2.08122e+01 9.03800e+08
2.10535e+01 9.18415e+08
2.12975e+01 9.33262e+08
2.15443e+01 9.48347e+08
2.17941e+01 9.63674e+08
2.20467e+01 9.79249e+08
2.23022e+01 9.95076e+08
2.25607e+01 1.01116e+09
2.28222e+01 1.02751e+09
2.30868e+01 1.04413e+09
2.33544e+01 1.06102e+09
2.36251e+01 1.07819e+09
2.38989e+01 1.09564e+09
2.41759e+01 1.11339e+09
2.44562e+01 1.13144e+09
2.47396e+01 1.14979e+09
2.50264e+01 1.16845e+09
2.53165e+01 1.18743e+09
2.56099e+01 1.20673e+09
2.59068e+01 1.22636e+09
2.62071e+01 1.24632e+09
2.65108e+01 1.26663e+09
2.68181e+01 1.28729e+09
2.71290e+01 1.30831e+09
2.74434e+01 1.32970e+09
2.77615e+01 1.35145e+09
2.80833e+01 1.37359e+09
2.84088e+01 1.39611e+09
2.87381e+01 1.41904e+09
2.90712e+01 1.44236e+09
2.94082e+01 1.46610e+09
2.97491e+01 1.49025e+09
3.00939e+01 1.51485e+09
3.04427e+01 1.54006e+09
3.07956e+01 1.56582e+09
3.11525e+01 1.59210e+09
3.15136e+01 1.61889e+09
3.18789e+01 1.64618e+09
3.22484e+01 1.67395e+09
3.26222e+01 1.70222e+09
3.30003e+01 1.73097e+09
3.33829e+01 1.76020e+09
3.37698e+01 1.78993e+09
3.41612e+01 1.82015e+09
3.45572e+01 1.85088e+09
3.49578e+01 1.88211e+09
3.53630e+01 1.91387e+09
3.57729e+01 1.94616e+09
3.61875e+01 1.97899e+09
3.66070e+01 2.01237e+09
3.70313e+01 2.04633e+09
3.74605e+01 2.08088e+09
3.78947e+01 2.11602e+09
3.83340e+01 2.15179e+09
3.87783e+01 2.18818e+09
3.92278e+01 2.22523e+09
3.96825e+01 2.26295e+09
4.01424e+01 2.30136e+09
4.06077e+01 2.34047e+09
4.10784e+01 2.38031e+09
4.15546e+01 2.42090e+09
4.20362e+01 2.46225e+09
4.25235e+01 2.50438e+09
4.30164e+01 2.54732e+09
4.35150e+01 2.59108e+09
4.40194e+01 2.63568e+09
4.45296e+01 2.68115e+09
4.50457e+01 2.72751e+09
4.55679e+01 2.77478e+09
4.60960e+01 2.82297e+09
4.66303e+01 2.87212e+09
4.71708e+01 2.92224e+09
4.77176e+01 2.97336e+09
4.82707e+01 3.02550e+09
4.88302e+01 3.07868e+09
4.93962e+01 3.13293e+09
4.99688e+01 3.18826e+09
5.05480e+01 3.24471e+09
5.11339e+01 3.30230e+09
5.17266e+01 3.36105e+09
5.23261e+01 3.42099e+09
5.29327e+01 3.48215e+09
5.35462e+01 3.54454e+09
5.41669e+01 3.60821e+09
5.47947e+01 3.67317e+09
5.54299e+01 3.73946e+09
5.60723e+01 3.80710e+09
5.67223e+01 3.87612e+09
5.73798e+01 3.94655e+09
5.80449e+01 4.01843e+09
5.87177e+01 4.09178e+09
5.93983e+01 4.16663e+09
6.00868e+01 4.24302e+09
6.07832e+01 4.32099e+09
6.14878e+01 4.40056e+09
6.22005e+01 4.48177e+09
6.29215e+01 4.56465e+09
6.36508e+01 4.64925e+09
6.43886e+01 4.73560e+09
6.51349e+01 4.82374e+09
6.58899e+01 4.91370e+09
6.66536e+01 5.00554e+09
6.74262e+01 5.09928e+09
6.82078e+01 5.19497e+09
6.89984e+01 5.29266e+09
6.97981e+01 5.39238e+09
7.06072e+01 5.49419e+09
7.14256e+01 5.59813e+09
7.22535e+01 5.70425e+09
7.30910e+01 5.81259e+09
7.39382e+01 5.92321e+09
7.47952e+01 6.03615e+09
7.56622e+01 6.15148e+09
7.65392e+01 6.26923e+09
7.74264e+01 6.38948e+09
7.83238e+01 6.51227e+09
7.92317e+01 6.63766e+09
8.01501e+01 6.76572e+09
8.10791e+01 6.89649e+09
8.20189e+01 7.03005e+09
8.29696e+01 7.16646e+09
8.39313e+01 7.30577e+09
8.49042e+01 7.44807e+09
8.58883e+01 7.59342e+09
8.68838e+01 7.74188e+09
8.78909e+01 7.89353e+09
8.89097e+01 8.04845e+09
8.99402e+01 8.20670e+09
9.09827e+01 8.36837e+09
9.20373e+01 8.53353e+09
9.31041e+01 8.70227e+09
9.41833e+01 8.87467e+09
9.52750e+01 9.05082e+09
9.63793e+01 9.23079e+09
9.74965e+01 9.41468e+09
9.86266e+01 9.60259e+09
9.97698e+01 9.79461e+09
1.00926e+02 9.99082e+09
1.02096e+02 1.01913e+10
1.03279e+02 1.03963e+10
1.04477e+02 1.06057e+10
1.05688e+02 1.08197e+10
1.06913e+02 1.10385e+10
1.08152e+02 1.12621e+10
1.09405e+02 1.14906e+10
1.10674e+02 1.17242e+10
1.11956e+02 1.19630e+10
1.13254e+02 1.22070e+10
1.14567e+02 1.24566e+10
1.15895e+02 1.27116e+10
1.17238e+02 1.29724e+10
1.18597e+02 1.32390e+10
1.19972e+02 1.35115e+10
1.21362e+02 1.37902e+10
1.22769e+02 1.40751e+10
1.24192e+02 1.43664e+10
1.25632e+02 1.46643e+10
1.27088e+02 1.49689e+10
1.28561e+02 1.52803e+10
1.30051e+02 1.55988e+10
1.31559e+02 1.59245e+10
1.33083e+02 1.62576e+10
1.34626e+02 1.65982e+10
1.36187e+02 1.69466e+10
1.37765e+02 1.73029e+10
1.39362e+02 1.76673e+10
1.40977e+02 1.80400e+10
1.42611e+02 1.84212e+10
1.44264e+02 1.88111e+10
