T[eV] σe[Ω/cm](SMT) σe[Ω/cm](modSMT) 
2.00000e-02 2.05031e+04 9.46571e+03
2.02785e-02 2.04438e+04 9.44084e+03
2.05609e-02 2.03847e+04 9.41612e+03
2.08472e-02 2.03260e+04 9.39155e+03
2.11375e-02 2.02676e+04 9.36712e+03
2.14319e-02 2.02096e+04 9.34285e+03
2.17303e-02 2.01518e+04 9.31871e+03
2.20329e-02 2.00944e+04 9.29472e+03
2.23397e-02 2.00373e+04 9.27087e+03
2.26508e-02 1.99805e+04 9.24717e+03
2.29662e-02 1.99241e+04 9.22361e+03
2.32861e-02 1.98679e+04 9.20020e+03
2.36103e-02 1.98121e+04 9.17692e+03
2.39391e-02 1.97566e+04 9.15379e+03
2.42725e-02 1.97014e+04 9.13080e+03
2.46105e-02 1.96466e+04 9.10795e+03
2.49532e-02 1.95920e+04 9.08524e+03
2.53007e-02 1.95377e+04 9.06267e+03
2.56530e-02 1.94838e+04 9.04024e+03
2.60102e-02 1.94302e+04 9.01795e+03
2.63724e-02 1.93768e+04 8.99580e+03
2.67397e-02 1.93238e+04 8.97379e+03
2.71120e-02 1.92711e+04 8.95191e+03
2.74896e-02 1.92187e+04 8.93017e+03
2.78724e-02 1.91666e+04 8.90857e+03
2.82605e-02 1.91148e+04 8.88710e+03
2.86541e-02 1.90633e+04 8.86577e+03
2.90531e-02 1.90120e+04 8.84458e+03
2.94577e-02 1.89611e+04 8.82352e+03
2.98679e-02 1.89105e+04 8.80260e+03
3.02838e-02 1.88602e+04 8.78181e+03
3.07055e-02 1.88102e+04 8.76115e+03
3.11331e-02 1.87605e+04 8.74063e+03
3.15666e-02 1.87110e+04 8.72024e+03
3.20062e-02 1.86619e+04 8.69998e+03
3.24519e-02 1.86130e+04 8.67986e+03
3.29038e-02 1.85645e+04 8.65987e+03
3.33620e-02 1.85162e+04 8.64001e+03
3.38266e-02 1.84682e+04 8.62028e+03
3.42976e-02 1.84205e+04 8.60068e+03
3.47752e-02 1.83731e+04 8.58121e+03
3.52595e-02 1.83260e+04 8.56187e+03
3.57505e-02 1.82791e+04 8.54266e+03
3.62484e-02 1.82326e+04 8.52359e+03
3.67531e-02 1.81863e+04 8.50464e+03
3.72649e-02 1.81403e+04 8.48582e+03
3.77839e-02 1.80946e+04 8.46712e+03
3.83100e-02 1.80491e+04 8.44856e+03
3.88435e-02 1.80040e+04 8.43012e+03
3.93844e-02 1.79591e+04 8.41182e+03
3.99328e-02 1.79145e+04 8.39363e+03
4.04889e-02 1.78701e+04 8.37558e+03
4.10528e-02 1.78261e+04 8.35765e+03
4.16244e-02 1.77823e+04 8.33985e+03
4.22041e-02 1.77388e+04 8.32217e+03
4.27918e-02 1.76956e+04 8.30462e+03
4.33877e-02 1.76526e+04 8.28719e+03
4.39919e-02 1.76099e+04 8.26989e+03
4.46045e-02 1.75675e+04 8.25272e+03
4.52256e-02 1.75253e+04 8.23567e+03
4.58554e-02 1.74834e+04 8.21874e+03
4.64939e-02 1.74418e+04 8.20193e+03
4.71414e-02 1.74004e+04 8.18525e+03
4.77979e-02 1.73593e+04 8.16870e+03
4.84635e-02 1.73185e+04 8.15226e+03
4.91383e-02 1.72780e+04 8.13595e+03
4.98226e-02 1.72377e+04 8.11976e+03
5.05164e-02 1.71976e+04 8.10369e+03
5.12199e-02 1.71578e+04 8.08775e+03
5.19331e-02 1.71183e+04 8.07192e+03
5.26563e-02 1.70791e+04 8.05622e+03
5.33896e-02 1.70401e+04 8.04064e+03
5.41330e-02 1.70013e+04 8.02518e+03
5.48869e-02 1.69629e+04 8.00984e+03
5.56512e-02 1.69246e+04 7.99462e+03
5.64262e-02 1.68867e+04 7.97953e+03
5.72119e-02 1.68490e+04 7.96455e+03
5.80086e-02 1.68115e+04 7.94969e+03
5.88164e-02 1.67743e+04 7.93495e+03
5.96354e-02 1.67374e+04 7.92033e+03
6.04659e-02 1.67007e+04 7.90583e+03
6.13079e-02 1.66642e+04 7.89145e+03
6.21616e-02 1.66280e+04 7.87719e+03
6.30273e-02 1.65921e+04 7.86304e+03
6.39050e-02 1.65564e+04 7.84902e+03
6.47949e-02 1.65209e+04 7.83511e+03
6.56971e-02 1.64858e+04 7.82132e+03
6.66120e-02 1.64508e+04 7.80765e+03
6.75396e-02 1.64161e+04 7.79409e+03
6.84801e-02 1.63817e+04 7.78066e+03
6.94337e-02 1.63475e+04 7.76734e+03
7.04006e-02 1.63135e+04 7.75414e+03
7.13810e-02 1.62798e+04 7.74105e+03
7.23750e-02 1.62463e+04 7.72809e+03
7.33828e-02 1.62131e+04 7.71524e+03
7.44047e-02 1.61801e+04 7.70250e+03
7.54408e-02 1.61474e+04 7.68988e+03
7.64914e-02 1.61149e+04 7.67738e+03
7.75566e-02 1.60827e+04 7.66500e+03
7.86366e-02 1.60507e+04 7.65273e+03
7.97316e-02 1.60189e+04 7.64058e+03
8.08419e-02 1.59874e+04 7.62854e+03
8.19677e-02 1.59561e+04 7.61662e+03
8.31091e-02 1.59250e+04 7.60481e+03
8.42664e-02 1.58942e+04 7.59312e+03
8.54399e-02 1.58637e+04 7.58155e+03
8.66297e-02 1.58333e+04 7.57009e+03
8.78360e-02 1.58032e+04 7.55875e+03
8.90592e-02 1.57734e+04 7.54752e+03
9.02994e-02 1.57438e+04 7.53641e+03
9.15568e-02 1.57144e+04 7.52541e+03
9.28318e-02 1.56853e+04 7.51452e+03
9.41245e-02 1.56563e+04 7.50376e+03
9.54352e-02 1.56277e+04 7.49310e+03
9.67642e-02 1.55992e+04 7.48256e+03
9.81117e-02 1.55710e+04 7.47214e+03
9.94779e-02 1.55431e+04 7.46183e+03
1.00863e-01 1.55153e+04 7.45164e+03
1.02268e-01 1.54878e+04 7.44156e+03
1.03692e-01 1.54605e+04 7.43159e+03
1.05136e-01 1.54335e+04 7.42174e+03
1.06600e-01 1.54067e+04 7.41200e+03
1.08084e-01 1.53801e+04 7.40238e+03
1.09589e-01 1.53538e+04 7.39287e+03
1.11116e-01 1.53277e+04 7.38348e+03
1.12663e-01 1.53018e+04 7.37420e+03
1.14232e-01 1.52761e+04 7.36504e+03
1.15822e-01 1.52507e+04 7.35599e+03
1.17435e-01 1.52255e+04 7.34706e+03
1.19071e-01 1.52006e+04 7.33824e+03
1.20729e-01 1.51758e+04 7.32953e+03
1.22410e-01 1.51513e+04 7.32094e+03
1.24115e-01 1.51271e+04 7.31246e+03
1.25843e-01 1.51030e+04 7.30410e+03
1.27595e-01 1.50792e+04 7.29585e+03
1.29372e-01 1.50556e+04 7.28772e+03
1.31174e-01 1.50323e+04 7.27970e+03
1.33000e-01 1.50091e+04 7.27180e+03
1.34852e-01 1.49862e+04 7.26401e+03
1.36730e-01 1.49635e+04 7.25634e+03
1.38634e-01 1.49411e+04 7.24878e+03
1.40565e-01 1.49189e+04 7.24134e+03
1.42522e-01 1.48969e+04 7.23401e+03
1.44507e-01 1.48751e+04 7.22680e+03
1.46519e-01 1.48536e+04 7.21970e+03
1.48560e-01 1.48323e+04 7.21272e+03
1.50628e-01 1.48112e+04 7.20585e+03
1.52726e-01 1.47903e+04 7.19910e+03
1.54853e-01 1.47697e+04 7.19247e+03
1.57009e-01 1.47493e+04 7.18595e+03
1.59196e-01 1.47291e+04 7.17955e+03
1.61412e-01 1.47091e+04 7.17326e+03
1.63660e-01 1.46894e+04 7.16709e+03
1.65939e-01 1.46699e+04 7.16104e+03
1.68250e-01 1.46506e+04 7.15510e+03
1.70593e-01 1.46315e+04 7.14928e+03
1.72968e-01 1.46127e+04 7.14358e+03
1.75377e-01 1.45941e+04 7.13799e+03
1.77819e-01 1.45757e+04 7.13252e+03
1.80296e-01 1.45575e+04 7.12717e+03
1.82806e-01 1.45396e+04 7.12194e+03
1.85352e-01 1.45219e+04 7.11682e+03
1.87933e-01 1.45044e+04 7.11182e+03
1.90550e-01 1.44872e+04 7.10694e+03
1.93203e-01 1.44701e+04 7.10218e+03
1.95894e-01 1.44533e+04 7.09754e+03
1.98622e-01 1.44367e+04 7.09301e+03
2.01388e-01 1.44204e+04 7.08861e+03
2.04192e-01 1.44043e+04 7.08432e+03
2.07036e-01 1.43884e+04 7.08016e+03
2.09919e-01 1.43727e+04 7.07611e+03
2.12842e-01 1.43572e+04 7.07219e+03
2.15806e-01 1.43420e+04 7.06838e+03
2.18811e-01 1.43270e+04 7.06470e+03
2.21858e-01 1.43122e+04 7.06113e+03
2.24947e-01 1.42977e+04 7.05769e+03
2.28080e-01 1.42834e+04 7.05437e+03
2.31256e-01 1.42693e+04 7.05117e+03
2.34476e-01 1.42554e+04 7.04809e+03
2.37742e-01 1.42418e+04 7.04514e+03
2.41052e-01 1.42283e+04 7.04231e+03
2.44409e-01 1.42152e+04 7.03960e+03
2.47812e-01 1.42022e+04 7.03701e+03
2.51263e-01 1.41895e+04 7.03455e+03
2.54762e-01 1.41770e+04 7.03221e+03
2.58310e-01 1.41647e+04 7.03000e+03
2.61907e-01 1.41526e+04 7.02791e+03
2.65554e-01 1.41408e+04 7.02595e+03
2.69252e-01 1.41292e+04 7.02411e+03
2.73002e-01 1.41179e+04 7.02240e+03
2.76803e-01 1.41067e+04 7.02081e+03
2.80658e-01 1.40958e+04 7.01935e+03
2.84566e-01 1.40852e+04 7.01802e+03
2.88529e-01 1.40747e+04 7.01682e+03
2.92547e-01 1.40645e+04 7.01574e+03
2.96621e-01 1.40545e+04 7.01479e+03
3.00751e-01 1.40448e+04 7.01397e+03
3.04939e-01 1.40353e+04 7.01328e+03
3.09186e-01 1.40260e+04 7.01272e+03
3.13491e-01 1.40169e+04 7.01230e+03
3.17857e-01 1.40081e+04 7.01200e+03
3.22283e-01 1.39995e+04 7.01183e+03
3.26771e-01 1.39912e+04 7.01179e+03
3.31321e-01 1.39831e+04 7.01189e+03
3.35935e-01 1.39752e+04 7.01212e+03
3.40613e-01 1.39675e+04 7.01248e+03
3.45356e-01 1.39601e+04 7.01298e+03
3.50165e-01 1.39529e+04 7.01361e+03
3.55042e-01 1.39460e+04 7.01437e+03
3.59986e-01 1.39393e+04 7.01528e+03
3.64999e-01 1.39328e+04 7.01631e+03
3.70081e-01 1.39266e+04 7.01749e+03
3.75235e-01 1.39206e+04 7.01880e+03
3.80460e-01 1.39149e+04 7.02025e+03
3.85758e-01 1.39094e+04 7.02183e+03
3.91130e-01 1.39041e+04 7.02356e+03
3.96577e-01 1.38991e+04 7.02543e+03
4.02099e-01 1.38943e+04 7.02743e+03
4.07699e-01 1.38897e+04 7.02958e+03
4.13376e-01 1.38854e+04 7.03187e+03
4.19132e-01 1.38814e+04 7.03430e+03
4.24969e-01 1.38776e+04 7.03687e+03
4.30887e-01 1.38740e+04 7.03959e+03
4.36887e-01 1.38707e+04 7.04245e+03
4.42971e-01 1.38676e+04 7.04546e+03
4.49140e-01 1.38648e+04 7.04862e+03
4.55394e-01 1.38622e+04 7.05192e+03
4.61736e-01 1.38599e+04 7.05536e+03
4.68165e-01 1.38578e+04 7.05896e+03
4.74685e-01 1.38560e+04 7.06270e+03
4.81295e-01 1.38544e+04 7.06660e+03
4.87997e-01 1.38530e+04 7.07064e+03
4.94793e-01 1.38520e+04 7.07484e+03
5.01683e-01 1.38511e+04 7.07919e+03
5.08669e-01 1.38506e+04 7.08369e+03
5.15753e-01 1.38502e+04 7.08835e+03
5.22935e-01 1.38502e+04 7.09316e+03
5.30217e-01 1.38504e+04 7.09812e+03
5.37600e-01 1.38508e+04 7.10325e+03
5.45087e-01 1.38515e+04 7.10853e+03
5.52677e-01 1.38525e+04 7.11396e+03
5.60373e-01 1.38537e+04 7.11956e+03
5.68177e-01 1.38552e+04 7.12532e+03
5.76089e-01 1.38570e+04 7.13124e+03
5.84111e-01 1.38590e+04 7.13732e+03
5.92245e-01 1.38613e+04 7.14356e+03
6.00492e-01 1.38638e+04 7.14997e+03
6.08854e-01 1.38667e+04 7.15655e+03
6.17333e-01 1.38697e+04 7.16329e+03
6.25930e-01 1.38731e+04 7.17020e+03
6.34646e-01 1.38767e+04 7.17727e+03
6.43484e-01 1.38806e+04 7.18452e+03
6.52444e-01 1.38848e+04 7.19194e+03
6.61530e-01 1.38892e+04 7.19952e+03
6.70742e-01 1.38939e+04 7.20729e+03
6.80082e-01 1.38989e+04 7.21522e+03
6.89553e-01 1.39042e+04 7.22333e+03
6.99155e-01 1.39097e+04 7.23162e+03
7.08891e-01 1.39155e+04 7.24008e+03
7.18763e-01 1.39216e+04 7.24873e+03
7.28772e-01 1.39280e+04 7.25755e+03
7.38920e-01 1.39347e+04 7.26656e+03
7.49210e-01 1.39416e+04 7.27575e+03
7.59643e-01 1.39488e+04 7.28512e+03
7.70221e-01 1.39564e+04 7.29468e+03
7.80947e-01 1.39642e+04 7.30442e+03
7.91822e-01 1.39723e+04 7.31435e+03
8.02848e-01 1.39806e+04 7.32447e+03
8.14028e-01 1.39893e+04 7.33479e+03
8.25364e-01 1.39983e+04 7.34529e+03
8.36858e-01 1.40076e+04 7.35599e+03
8.48511e-01 1.40171e+04 7.36689e+03
8.60327e-01 1.40270e+04 7.37798e+03
8.72308e-01 1.40372e+04 7.38926e+03
8.84455e-01 1.40476e+04 7.40075e+03
8.96771e-01 1.40584e+04 7.41244e+03
9.09259e-01 1.40695e+04 7.42434e+03
9.21921e-01 1.40808e+04 7.43643e+03
9.34759e-01 1.40925e+04 7.44874e+03
9.47776e-01 1.41045e+04 7.46125e+03
9.60974e-01 1.41168e+04 7.47397e+03
9.74356e-01 1.41294e+04 7.48690e+03
9.87924e-01 1.41424e+04 7.50004e+03
1.00168e+00 1.41556e+04 7.51340e+03
1.01563e+00 1.41692e+04 7.52698e+03
1.02977e+00 1.41830e+04 7.54077e+03
1.04411e+00 1.41972e+04 7.55479e+03
1.05865e+00 1.42118e+04 7.56902e+03
1.07340e+00 1.42266e+04 7.58348e+03
1.08834e+00 1.42418e+04 7.59817e+03
1.10350e+00 1.42573e+04 7.61308e+03
1.11887e+00 1.42731e+04 7.62823e+03
1.13445e+00 1.42893e+04 7.64360e+03
1.15024e+00 1.43058e+04 7.65921e+03
1.16626e+00 1.43226e+04 7.67505e+03
1.18250e+00 1.43398e+04 7.69114e+03
1.19897e+00 1.43573e+04 7.70746e+03
1.21566e+00 1.43752e+04 7.72402e+03
1.23259e+00 1.43934e+04 7.74083e+03
1.24976e+00 1.44119e+04 7.75789e+03
1.26716e+00 1.44308e+04 7.77519e+03
1.28481e+00 1.44501e+04 7.79275e+03
1.30270e+00 1.44697e+04 7.81056e+03
1.32084e+00 1.44896e+04 7.82862e+03
1.33923e+00 1.45100e+04 7.84695e+03
1.35788e+00 1.45306e+04 7.86553e+03
1.37679e+00 1.45517e+04 7.88438e+03
1.39596e+00 1.45731e+04 7.90350e+03
1.41540e+00 1.45948e+04 7.92288e+03
1.43511e+00 1.46169e+04 7.94253e+03
1.45510e+00 1.46394e+04 7.96246e+03
1.47536e+00 1.46623e+04 7.98266e+03
1.49590e+00 1.46856e+04 8.00315e+03
1.51674e+00 1.47092e+04 8.02391e+03
1.53786e+00 1.47332e+04 8.04496e+03
1.55927e+00 1.47576e+04 8.06630e+03
1.58099e+00 1.47824e+04 8.08793e+03
1.60300e+00 1.48075e+04 8.10985e+03
1.62532e+00 1.48331e+04 8.13207e+03
1.64796e+00 1.48590e+04 8.15459e+03
1.67091e+00 1.48854e+04 8.17741e+03
1.69417e+00 1.49121e+04 8.20054e+03
1.71777e+00 1.49393e+04 8.22397e+03
1.74169e+00 1.49668e+04 8.24772e+03
1.76594e+00 1.49948e+04 8.27178e+03
1.79053e+00 1.50231e+04 8.29617e+03
1.81547e+00 1.50519e+04 8.32087e+03
1.84075e+00 1.50811e+04 8.34591e+03
1.86638e+00 1.51107e+04 8.37127e+03
1.89237e+00 1.51407e+04 8.39696e+03
1.91872e+00 1.51712e+04 8.42300e+03
1.94544e+00 1.52020e+04 8.44937e+03
1.97253e+00 1.52333e+04 8.47608e+03
2.00000e+00 1.52651e+04 8.50315e+03
2.02785e+00 1.52973e+04 8.53057e+03
2.05609e+00 1.53299e+04 8.55834e+03
2.08472e+00 1.53629e+04 8.58648e+03
2.11375e+00 1.53964e+04 8.61497e+03
2.14319e+00 1.54304e+04 8.64384e+03
2.17303e+00 1.54648e+04 8.67308e+03
2.20329e+00 1.54996e+04 8.70270e+03
2.23397e+00 1.55349e+04 8.73270e+03
2.26508e+00 1.55707e+04 8.76308e+03
2.29662e+00 1.56069e+04 8.79386e+03
2.32861e+00 1.56436e+04 8.82503e+03
2.36103e+00 1.56808e+04 8.85660e+03
2.39391e+00 1.57185e+04 8.88858e+03
2.42725e+00 1.57566e+04 8.92097e+03
2.46105e+00 1.57952e+04 8.95377e+03
2.49532e+00 1.58343e+04 8.98699e+03
2.53007e+00 1.58739e+04 9.02063e+03
2.56530e+00 1.59140e+04 9.05471e+03
2.60102e+00 1.59545e+04 9.08922e+03
2.63724e+00 1.59956e+04 9.12417e+03
2.67397e+00 1.60372e+04 9.15957e+03
2.71120e+00 1.60793e+04 9.19542e+03
2.74896e+00 1.61219e+04 9.23173e+03
2.78724e+00 1.61650e+04 9.26851e+03
2.82605e+00 1.62086e+04 9.30575e+03
2.86541e+00 1.62528e+04 9.34346e+03
2.90531e+00 1.62975e+04 9.38166e+03
2.94577e+00 1.63427e+04 9.42035e+03
2.98679e+00 1.63884e+04 9.45953e+03
3.02838e+00 1.64347e+04 9.49921e+03
3.07055e+00 1.64816e+04 9.53940e+03
3.11331e+00 1.65290e+04 9.58010e+03
3.15666e+00 1.65769e+04 9.62132e+03
3.20062e+00 1.66254e+04 9.66307e+03
3.24519e+00 1.66745e+04 9.70535e+03
3.29038e+00 1.67241e+04 9.74818e+03
3.33620e+00 1.67743e+04 9.79155e+03
3.38266e+00 1.68251e+04 9.83547e+03
3.42976e+00 1.68764e+04 9.87996e+03
3.47752e+00 1.69284e+04 9.92502e+03
3.52595e+00 1.69809e+04 9.97066e+03
3.57505e+00 1.70340e+04 1.00169e+04
3.62484e+00 1.70877e+04 1.00637e+04
3.67531e+00 1.71421e+04 1.01111e+04
3.72649e+00 1.71970e+04 1.01591e+04
3.77839e+00 1.72526e+04 1.02078e+04
3.83100e+00 1.73087e+04 1.02570e+04
3.88435e+00 1.73655e+04 1.03069e+04
3.93844e+00 1.74230e+04 1.03575e+04
3.99328e+00 1.74810e+04 1.04087e+04
4.04889e+00 1.75397e+04 1.04605e+04
4.10528e+00 1.75991e+04 1.05130e+04
4.16244e+00 1.76591e+04 1.05662e+04
4.22041e+00 1.77198e+04 1.06201e+04
4.27918e+00 1.77811e+04 1.06746e+04
4.33877e+00 1.78431e+04 1.07299e+04
4.39919e+00 1.79058e+04 1.07858e+04
4.46045e+00 1.79691e+04 1.08425e+04
4.52256e+00 1.80332e+04 1.08999e+04
4.58554e+00 1.80979e+04 1.09581e+04
4.64939e+00 1.81634e+04 1.10170e+04
4.71414e+00 1.82295e+04 1.10766e+04
4.77979e+00 1.82964e+04 1.11370e+04
4.84635e+00 1.83640e+04 1.11981e+04
4.91383e+00 1.84323e+04 1.12601e+04
4.98226e+00 1.85013e+04 1.13228e+04
5.05164e+00 1.85711e+04 1.13863e+04
5.12199e+00 1.86416e+04 1.14506e+04
5.19331e+00 1.87129e+04 1.15157e+04
5.26563e+00 1.87850e+04 1.15817e+04
5.33896e+00 1.88578e+04 1.16484e+04
5.41330e+00 1.89314e+04 1.17160e+04
5.48869e+00 1.90057e+04 1.17844e+04
5.56512e+00 1.90809e+04 1.18537e+04
5.64262e+00 1.91569e+04 1.19238e+04
5.72119e+00 1.92336e+04 1.19947e+04
5.80086e+00 1.93112e+04 1.20665e+04
5.88164e+00 1.93896e+04 1.21392e+04
5.96354e+00 1.94688e+04 1.22127e+04
6.04659e+00 1.95488e+04 1.22872e+04
6.13079e+00 1.96297e+04 1.23624e+04
6.21616e+00 1.97114e+04 1.24386e+04
6.30273e+00 1.97940e+04 1.25156e+04
6.39050e+00 1.98775e+04 1.25935e+04
6.47949e+00 1.99618e+04 1.26723e+04
6.56971e+00 2.00470e+04 1.27519e+04
6.66120e+00 2.01330e+04 1.28324e+04
6.75396e+00 2.02200e+04 1.29138e+04
6.84801e+00 2.03078e+04 1.29961e+04
6.94337e+00 2.03966e+04 1.30792e+04
7.04006e+00 2.04862e+04 1.31632e+04
7.13810e+00 2.05768e+04 1.32481e+04
7.23750e+00 2.06683e+04 1.33338e+04
7.33828e+00 2.07607e+04 1.34203e+04
7.44047e+00 2.08540e+04 1.35077e+04
7.54408e+00 2.09482e+04 1.35959e+04
7.64914e+00 2.10434e+04 1.36850e+04
7.75566e+00 2.11395e+04 1.37748e+04
7.86366e+00 2.12366e+04 1.38655e+04
7.97316e+00 2.13346e+04 1.39569e+04
8.08419e+00 2.14335e+04 1.40491e+04
8.19677e+00 2.15333e+04 1.41421e+04
8.31091e+00 2.16341e+04 1.42358e+04
8.42664e+00 2.17358e+04 1.43303e+04
8.54399e+00 2.18384e+04 1.44255e+04
8.66297e+00 2.19420e+04 1.45215e+04
8.78360e+00 2.20464e+04 1.46181e+04
8.90592e+00 2.21518e+04 1.47154e+04
9.02994e+00 2.22581e+04 1.48134e+04
9.15568e+00 2.23652e+04 1.49121e+04
9.28318e+00 2.24732e+04 1.50114e+04
9.41245e+00 2.25820e+04 1.51113e+04
9.54352e+00 2.26917e+04 1.52119e+04
9.67642e+00 2.28022e+04 1.53131e+04
9.81117e+00 2.29135e+04 1.54149e+04
9.94779e+00 2.30255e+04 1.55174e+04
1.00863e+01 2.31383e+04 1.56204e+04
1.02268e+01 2.32519e+04 1.57240e+04
1.03692e+01 2.33661e+04 1.58282e+04
1.05136e+01 2.34809e+04 1.59329e+04
1.06600e+01 2.35964e+04 1.60383e+04
1.08084e+01 2.37124e+04 1.61442e+04
1.09589e+01 2.38290e+04 1.62507e+04
1.11116e+01 2.39461e+04 1.63578e+04
1.12663e+01 2.40636e+04 1.64655e+04
1.14232e+01 2.41816e+04 1.65738e+04
1.15822e+01 2.42999e+04 1.66827e+04
1.17435e+01 2.44186e+04 1.67922e+04
1.19071e+01 2.45375e+04 1.69024e+04
1.20729e+01 2.46566e+04 1.70132e+04
1.22410e+01 2.47759e+04 1.71246e+04
1.24115e+01 2.48953e+04 1.72368e+04
1.25843e+01 2.50148e+04 1.73496e+04
1.27595e+01 2.51343e+04 1.74631e+04
1.29372e+01 2.52537e+04 1.75774e+04
1.31174e+01 2.53731e+04 1.76925e+04
1.33000e+01 2.54923e+04 1.78084e+04
1.34852e+01 2.56113e+04 1.79250e+04
1.36730e+01 2.57301e+04 1.80425e+04
1.38634e+01 2.58487e+04 1.81609e+04
1.40565e+01 2.59669e+04 1.82802e+04
1.42522e+01 2.60848e+04 1.84005e+04
1.44507e+01 2.62024e+04 1.85217e+04
1.46519e+01 2.63195e+04 1.86439e+04
1.48560e+01 2.64362e+04 1.87671e+04
1.50628e+01 2.65525e+04 1.88914e+04
1.52726e+01 2.66684e+04 1.90168e+04
1.54853e+01 2.67838e+04 1.91433e+04
1.57009e+01 2.68988e+04 1.92710e+04
1.59196e+01 2.70133e+04 1.93999e+04
1.61412e+01 2.71274e+04 1.95301e+04
1.63660e+01 2.72411e+04 1.96615e+04
1.65939e+01 2.73544e+04 1.97942e+04
1.68250e+01 2.74674e+04 1.99283e+04
1.70593e+01 2.75800e+04 2.00637e+04
1.72968e+01 2.76923e+04 2.02006e+04
1.75377e+01 2.78044e+04 2.03389e+04
1.77819e+01 2.79163e+04 2.04787e+04
1.80296e+01 2.80281e+04 2.06200e+04
1.82806e+01 2.81398e+04 2.07628e+04
1.85352e+01 2.82514e+04 2.09073e+04
1.87933e+01 2.83631e+04 2.10533e+04
1.90550e+01 2.84749e+04 2.12011e+04
1.93203e+01 2.85868e+04 2.13505e+04
1.95894e+01 2.86990e+04 2.15016e+04
1.98622e+01 2.88115e+04 2.16545e+04
2.01388e+01 2.89243e+04 2.18091e+04
2.04192e+01 2.90376e+04 2.19656e+04
2.07036e+01 2.91515e+04 2.21239e+04
2.09919e+01 2.92659e+04 2.22841e+04
2.12842e+01 2.93810e+04 2.24463e+04
2.15806e+01 2.94968e+04 2.26103e+04
2.18811e+01 2.96135e+04 2.27764e+04
2.21858e+01 2.97311e+04 2.29445e+04
2.24947e+01 2.98496e+04 2.31146e+04
2.28080e+01 2.99691e+04 2.32868e+04
2.31256e+01 3.00897e+04 2.34611e+04
2.34476e+01 3.02115e+04 2.36375e+04
2.37742e+01 3.03345e+04 2.38161e+04
2.41052e+01 3.04588e+04 2.39969e+04
2.44409e+01 3.05844e+04 2.41801e+04
2.47812e+01 3.07114e+04 2.43641e+04
2.51263e+01 3.08400e+04 2.45485e+04
2.54762e+01 3.09700e+04 2.47341e+04
2.58310e+01 3.11016e+04 2.49211e+04
2.61907e+01 3.12349e+04 2.51100e+04
2.65554e+01 3.13698e+04 2.53012e+04
2.69252e+01 3.15065e+04 2.54949e+04
2.73002e+01 3.16450e+04 2.56914e+04
2.76803e+01 3.17853e+04 2.58909e+04
2.80658e+01 3.19275e+04 2.60938e+04
2.84566e+01 3.20716e+04 2.63001e+04
2.88529e+01 3.22177e+04 2.65101e+04
2.92547e+01 3.23659e+04 2.67240e+04
2.96621e+01 3.25161e+04 2.69417e+04
3.00751e+01 3.26673e+04 2.71636e+04
3.04939e+01 3.28170e+04 2.73896e+04
3.09186e+01 3.29663e+04 2.76199e+04
3.13491e+01 3.31163e+04 2.78545e+04
3.17857e+01 3.32679e+04 2.80935e+04
3.22283e+01 3.34219e+04 2.83371e+04
3.26771e+01 3.35790e+04 2.85851e+04
3.31321e+01 3.37396e+04 2.88378e+04
3.35935e+01 3.39043e+04 2.90951e+04
3.40613e+01 3.40734e+04 2.93570e+04
3.45356e+01 3.42472e+04 2.96237e+04
3.50165e+01 3.44260e+04 2.98951e+04
3.55042e+01 3.46100e+04 3.01713e+04
3.59986e+01 3.47993e+04 3.04523e+04
3.64999e+01 3.49940e+04 3.07381e+04
3.70081e+01 3.51943e+04 3.10288e+04
3.75235e+01 3.54001e+04 3.13243e+04
3.80460e+01 3.56116e+04 3.16248e+04
3.85758e+01 3.58286e+04 3.19301e+04
3.91130e+01 3.60513e+04 3.22405e+04
3.96577e+01 3.62796e+04 3.25558e+04
4.02099e+01 3.65135e+04 3.28761e+04
4.07699e+01 3.67529e+04 3.32015e+04
4.13376e+01 3.69979e+04 3.35319e+04
4.19132e+01 3.72483e+04 3.38674e+04
