# Zach Johnson Dec/11/2023 CHNC for TCCW Paper
# Ti=1.000e+00[eV], Tie=9.810e+00[eV] , Te_c=9.810e+00[eV], n_i=5.979e+22[1/cc], n_e=1.794e+23[1/cc]
# ri=2.998, Zbar=3.000, Rc=0.521[AU], Γii=8.168e+01, Γei=-2.776e+00 , Γee=9.252e-01, κ=2.670e+00
r/ri        g_ii        g_ei        g_ee        OCP:g_ii    Yuk:g_ii    βu_ii_eff   βu_OCP      βu_Yuk    
1.00000e-02 3.40576e-01 2.02994e+00 1.50415e-01 3.61368e-08 0.00000e+00 8.04359e+03 8.16935e+03 7.89530e+03
2.00000e-02 3.37700e-01 2.04375e+00 1.55646e-01 3.61006e-08 0.00000e+00 3.95945e+03 4.08516e+03 3.81567e+03
3.00000e-02 3.33259e-01 2.06719e+00 1.61490e-01 3.60159e-08 0.00000e+00 2.59812e+03 2.72377e+03 2.45874e+03
4.00000e-02 3.27504e-01 2.10032e+00 1.67975e-01 3.59457e-08 0.00000e+00 1.91752e+03 2.04307e+03 1.78240e+03
5.00000e-02 3.20664e-01 2.14394e+00 1.75125e-01 3.58222e-08 0.00000e+00 1.50923e+03 1.63465e+03 1.37825e+03
6.00000e-02 3.12942e-01 2.19839e+00 1.82961e-01 3.56446e-08 0.00000e+00 1.23710e+03 1.36237e+03 1.11015e+03
7.00000e-02 3.04525e-01 2.26487e+00 1.91497e-01 3.55013e-08 0.00000e+00 1.04279e+03 1.16788e+03 9.19742e+02
8.00000e-02 2.95568e-01 2.34404e+00 2.00741e-01 3.52433e-08 0.00000e+00 8.97131e+02 1.02201e+03 7.77870e+02
9.00000e-02 2.86198e-01 2.43761e+00 2.10699e-01 3.50452e-08 0.00000e+00 7.83904e+02 9.08560e+02 6.68324e+02
1.00000e-01 2.76519e-01 2.54666e+00 2.21367e-01 3.48118e-08 0.00000e+00 6.93388e+02 8.17797e+02 5.81383e+02
1.10000e-01 2.66621e-01 2.67361e+00 2.32737e-01 3.44933e-08 0.00000e+00 6.19394e+02 7.43536e+02 5.10860e+02
1.20000e-01 2.56583e-01 2.82004e+00 2.44795e-01 3.41510e-08 0.00000e+00 5.57796e+02 6.81652e+02 4.52633e+02
1.30000e-01 2.46471e-01 2.98946e+00 2.57521e-01 3.38819e-08 0.00000e+00 5.05736e+02 6.29287e+02 4.03847e+02
1.40000e-01 2.36344e-01 3.18404e+00 2.70890e-01 3.34932e-08 0.00000e+00 4.61173e+02 5.84402e+02 3.62464e+02
1.50000e-01 2.26251e-01 3.40913e+00 2.84870e-01 3.31517e-08 0.00000e+00 4.22610e+02 5.45501e+02 3.26990e+02
1.60000e-01 2.16233e-01 3.66704e+00 2.99428e-01 3.27608e-08 0.00000e+00 3.88925e+02 5.11461e+02 2.96304e+02
1.70000e-01 2.06323e-01 3.96781e+00 3.14522e-01 3.23332e-08 0.00000e+00 3.59257e+02 4.81426e+02 2.69552e+02
1.80000e-01 1.96551e-01 4.28503e+00 3.30107e-01 3.19142e-08 0.00000e+00 3.32940e+02 4.54727e+02 2.46066e+02
1.90000e-01 1.86943e-01 4.53104e+00 3.46137e-01 3.14670e-08 0.00000e+00 3.09446e+02 4.30838e+02 2.25321e+02
2.00000e-01 1.77520e-01 4.69722e+00 3.62560e-01 3.10179e-08 0.00000e+00 2.88351e+02 4.09337e+02 2.06899e+02
2.10000e-01 1.68298e-01 4.79153e+00 3.79323e-01 3.05212e-08 0.00000e+00 2.69316e+02 3.89883e+02 1.90459e+02
2.20000e-01 1.59291e-01 4.82362e+00 3.96368e-01 3.00484e-08 0.00000e+00 2.52059e+02 3.72197e+02 1.75724e+02
2.30000e-01 1.50511e-01 4.80303e+00 4.13639e-01 2.95522e-08 0.00000e+00 2.36350e+02 3.56048e+02 1.62465e+02
2.40000e-01 1.41965e-01 4.74001e+00 4.31077e-01 2.90175e-08 0.00000e+00 2.21996e+02 3.41244e+02 1.50490e+02
2.50000e-01 1.33662e-01 4.64324e+00 4.48622e-01 2.85075e-08 0.00000e+00 2.08836e+02 3.27624e+02 1.39641e+02
2.60000e-01 1.25606e-01 4.52118e+00 4.66215e-01 2.79714e-08 0.00000e+00 1.96732e+02 3.15051e+02 1.29781e+02
2.70000e-01 1.17801e-01 4.38050e+00 4.83796e-01 2.74230e-08 0.00000e+00 1.85568e+02 3.03409e+02 1.20796e+02
2.80000e-01 1.10249e-01 4.22738e+00 5.01306e-01 2.69106e-08 0.00000e+00 1.75245e+02 2.92597e+02 1.12588e+02
2.90000e-01 1.02950e-01 4.06639e+00 5.18687e-01 2.63537e-08 0.00000e+00 1.65674e+02 2.82531e+02 1.05071e+02
3.00000e-01 9.59040e-02 3.90170e+00 5.35885e-01 2.57953e-08 0.00000e+00 1.56784e+02 2.73135e+02 9.81734e+01
3.10000e-01 8.91103e-02 3.73617e+00 5.52843e-01 2.52491e-08 0.00000e+00 1.48507e+02 2.64344e+02 9.18304e+01
3.20000e-01 8.25668e-02 3.57238e+00 5.69512e-01 2.46714e-08 0.00000e+00 1.40787e+02 2.56103e+02 8.59866e+01
3.30000e-01 7.62709e-02 3.41198e+00 5.85841e-01 2.41150e-08 0.00000e+00 1.33575e+02 2.48360e+02 8.05934e+01
3.40000e-01 7.02191e-02 3.25643e+00 6.01784e-01 2.35482e-08 0.00000e+00 1.26827e+02 2.41072e+02 7.56079e+01
3.50000e-01 6.44076e-02 3.10654e+00 6.17300e-01 2.29882e-08 0.00000e+00 1.20502e+02 2.34201e+02 7.09922e+01
3.60000e-01 5.88319e-02 2.96303e+00 6.32349e-01 2.24127e-08 0.00000e+00 1.14568e+02 2.27710e+02 6.67127e+01
3.70000e-01 5.34874e-02 2.82619e+00 6.46897e-01 2.18613e-08 0.00000e+00 1.08992e+02 2.21570e+02 6.27397e+01
3.80000e-01 4.83690e-02 2.69629e+00 6.60914e-01 2.12963e-08 0.00000e+00 1.03746e+02 2.15752e+02 5.90463e+01
3.90000e-01 4.34713e-02 2.57327e+00 6.74377e-01 2.07345e-08 0.00000e+00 9.88069e+01 2.10233e+02 5.56089e+01
4.00000e-01 3.87889e-02 2.45714e+00 6.87265e-01 2.01578e-08 0.00000e+00 9.41509e+01 2.04988e+02 5.24061e+01
4.10000e-01 3.43160e-02 2.34766e+00 6.99566e-01 1.96198e-08 0.00000e+00 8.97579e+01 2.00000e+02 4.94186e+01
4.20000e-01 3.00469e-02 2.24468e+00 7.11271e-01 1.90627e-08 0.00000e+00 8.56093e+01 1.95248e+02 4.66292e+01
4.30000e-01 2.59759e-02 2.14790e+00 7.22376e-01 1.85131e-08 0.00000e+00 8.16881e+01 1.90717e+02 4.40222e+01
4.40000e-01 2.20972e-02 2.05707e+00 7.32883e-01 1.79738e-08 0.00000e+00 7.79791e+01 1.86391e+02 4.15834e+01
4.50000e-01 1.84051e-02 1.97186e+00 7.42798e-01 1.74317e-08 0.00000e+00 7.44680e+01 1.82258e+02 3.93000e+01
4.60000e-01 1.48941e-02 1.89200e+00 7.52133e-01 1.68980e-08 0.00000e+00 7.11418e+01 1.78303e+02 3.71604e+01
4.70000e-01 1.15586e-02 1.81716e+00 7.60900e-01 1.63791e-08 0.00000e+00 6.79886e+01 1.74517e+02 3.51538e+01
4.80000e-01 8.39313e-03 1.74708e+00 7.69116e-01 1.58552e-08 0.00000e+00 6.49974e+01 1.70888e+02 3.32707e+01
4.90000e-01 5.39248e-03 1.68143e+00 7.76802e-01 1.53536e-08 0.00000e+00 6.21580e+01 1.67406e+02 3.15021e+01
5.00000e-01 2.55153e-03 1.61997e+00 7.83980e-01 1.48371e-08 0.00000e+00 5.94611e+01 1.64064e+02 2.98400e+01
5.10000e-01 0.00000e+00 1.56240e+00 7.90673e-01 1.43347e-08 0.00000e+00 5.68979e+01 1.60852e+02 2.82768e+01
5.20000e-01 0.00000e+00 1.50851e+00 7.96906e-01 1.38392e-08 0.00000e+00 5.44603e+01 1.57764e+02 2.68059e+01
5.30000e-01 0.00000e+00 1.45803e+00 8.02705e-01 1.33564e-08 0.00000e+00 5.21410e+01 1.54792e+02 2.54209e+01
5.40000e-01 0.00000e+00 1.41076e+00 8.08096e-01 1.28796e-08 0.00000e+00 4.99329e+01 1.51929e+02 2.41160e+01
5.50000e-01 0.00000e+00 1.36647e+00 8.13106e-01 1.24047e-08 0.00000e+00 4.78296e+01 1.49171e+02 2.28859e+01
5.60000e-01 0.00000e+00 1.32498e+00 8.17760e-01 1.19472e-08 0.00000e+00 4.58250e+01 1.46510e+02 2.17258e+01
5.70000e-01 0.00000e+00 1.28610e+00 8.22084e-01 1.14915e-08 0.00000e+00 4.39137e+01 1.43943e+02 2.06311e+01
5.80000e-01 0.00000e+00 1.24967e+00 8.26103e-01 1.10486e-08 5.87678e-09 4.20904e+01 1.41464e+02 1.95975e+01
5.90000e-01 0.00000e+00 1.21551e+00 8.29842e-01 1.06079e-08 6.05077e-08 4.03503e+01 1.39069e+02 1.86213e+01
6.00000e-01 0.00000e+00 1.18350e+00 8.33323e-01 1.01714e-08 1.89658e-07 3.86887e+01 1.36753e+02 1.76988e+01
6.10000e-01 0.00000e+00 1.15348e+00 8.36569e-01 9.74887e-09 4.80350e-07 3.71016e+01 1.34513e+02 1.68267e+01
6.20000e-01 0.00000e+00 1.12534e+00 8.39600e-01 9.33682e-09 1.10442e-06 3.55848e+01 1.32345e+02 1.60018e+01
6.30000e-01 0.00000e+00 1.09895e+00 8.42437e-01 8.92771e-09 2.38541e-06 3.41348e+01 1.30246e+02 1.52213e+01
6.40000e-01 0.00000e+00 1.07421e+00 8.45097e-01 8.52647e-09 4.90574e-06 3.27481e+01 1.28212e+02 1.44826e+01
6.50000e-01 0.00000e+00 1.05101e+00 8.47600e-01 8.13753e-09 9.67051e-06 3.14214e+01 1.26241e+02 1.37830e+01
6.60000e-01 0.00000e+00 1.02927e+00 8.49959e-01 7.74789e-09 1.83463e-05 3.01518e+01 1.24329e+02 1.31204e+01
6.70000e-01 0.00000e+00 1.00889e+00 8.52192e-01 7.37663e-09 3.35941e-05 2.89362e+01 1.22473e+02 1.24925e+01
6.80000e-01 0.00000e+00 9.89791e-01 8.54310e-01 7.00257e-09 5.95140e-05 2.77722e+01 1.20673e+02 1.18973e+01
6.90000e-01 0.00000e+00 9.71901e-01 8.56327e-01 6.64855e-09 1.02213e-04 2.66571e+01 1.18924e+02 1.13329e+01
7.00000e-01 0.00000e+00 9.55156e-01 8.58255e-01 6.29598e-09 1.70503e-04 2.55887e+01 1.17225e+02 1.07975e+01
7.10000e-01 0.00000e+00 9.39483e-01 8.60105e-01 5.95412e-09 2.76711e-04 2.45647e+01 1.15574e+02 1.02895e+01
7.20000e-01 0.00000e+00 9.24831e-01 8.61885e-01 5.61378e-09 4.37599e-04 2.35829e+01 1.13968e+02 9.80741e+00
7.30000e-01 0.00000e+00 9.11138e-01 8.63604e-01 5.28738e-09 6.75331e-04 2.26415e+01 1.12406e+02 9.34967e+00
7.40000e-01 0.00000e+00 8.98359e-01 8.65272e-01 4.96276e-09 1.01846e-03 2.17386e+01 1.10887e+02 8.91498e+00
7.50000e-01 0.00000e+00 8.86443e-01 8.66894e-01 4.65179e-09 1.50284e-03 2.08725e+01 1.09407e+02 8.50204e+00
7.60000e-01 0.00000e+00 8.75349e-01 8.68477e-01 4.35006e-09 2.17243e-03 2.00414e+01 1.07967e+02 8.10968e+00
7.70000e-01 0.00000e+00 8.65033e-01 8.70028e-01 4.06725e-09 3.07988e-03 1.92438e+01 1.06563e+02 7.73676e+00
7.80000e-01 0.00000e+00 8.55463e-01 8.71550e-01 3.80350e-09 4.28683e-03 1.84783e+01 1.05196e+02 7.38224e+00
7.90000e-01 0.00000e+00 8.46597e-01 8.73050e-01 3.59951e-09 5.86391e-03 1.77434e+01 1.03863e+02 7.04512e+00
8.00000e-01 0.00000e+00 8.38408e-01 8.74531e-01 3.50968e-09 7.89027e-03 1.70379e+01 1.02563e+02 6.72447e+00
8.10000e-01 0.00000e+00 8.30862e-01 8.75996e-01 3.69523e-09 1.04528e-02 1.63603e+01 1.01295e+02 6.41942e+00
8.20000e-01 0.00000e+00 8.23935e-01 8.77450e-01 4.48895e-09 1.36450e-02 1.57097e+01 1.00058e+02 6.12914e+00
8.30000e-01 0.00000e+00 8.17596e-01 8.78895e-01 6.61068e-09 1.75650e-02 1.50848e+01 9.88504e+01 5.85285e+00
8.40000e-01 0.00000e+00 8.11826e-01 8.80334e-01 1.15468e-08 2.23141e-02 1.44845e+01 9.76715e+01 5.58984e+00
8.50000e-01 0.00000e+00 8.06596e-01 8.81769e-01 2.23060e-08 2.79942e-02 1.39078e+01 9.65203e+01 5.33940e+00
8.60000e-01 0.00000e+00 8.01890e-01 8.83202e-01 4.47721e-08 3.47056e-02 1.33538e+01 9.53957e+01 5.10088e+00
8.70000e-01 0.00000e+00 7.97684e-01 8.84635e-01 9.01314e-08 4.25442e-02 1.28215e+01 9.42969e+01 4.87368e+00
8.80000e-01 0.00000e+00 7.93963e-01 8.86070e-01 1.79087e-07 5.15995e-02 1.23101e+01 9.32229e+01 4.65722e+00
8.90000e-01 0.00000e+00 7.90705e-01 8.87507e-01 3.48997e-07 6.19516e-02 1.18186e+01 9.21729e+01 4.45094e+00
9.00000e-01 0.00000e+00 7.87897e-01 8.88949e-01 6.65493e-07 7.36697e-02 1.13463e+01 9.11461e+01 4.25434e+00
9.10000e-01 0.00000e+00 7.85521e-01 8.90396e-01 1.24114e-06 8.68094e-02 1.08924e+01 9.01417e+01 4.06692e+00
9.20000e-01 0.00000e+00 7.83564e-01 8.91849e-01 2.26442e-06 1.01412e-01 1.04562e+01 8.91591e+01 3.88823e+00
9.30000e-01 0.00000e+00 7.82009e-01 8.93310e-01 4.04365e-06 1.17502e-01 1.00370e+01 8.81975e+01 3.71783e+00
9.40000e-01 0.00000e+00 7.80845e-01 8.94778e-01 7.07205e-06 1.35088e-01 9.63405e+00 8.72562e+01 3.55531e+00
9.50000e-01 0.00000e+00 7.80057e-01 8.96254e-01 1.21215e-05 1.54161e-01 9.24678e+00 8.63347e+01 3.40028e+00
9.60000e-01 0.00000e+00 7.79635e-01 8.97740e-01 2.03748e-05 1.74695e-01 8.87455e+00 8.54322e+01 3.25236e+00
9.70000e-01 0.00000e+00 7.79564e-01 8.99235e-01 3.36071e-05 1.96647e-01 8.51677e+00 8.45483e+01 3.11122e+00
9.80000e-01 0.00000e+00 7.79834e-01 9.00739e-01 5.44306e-05 2.19959e-01 8.17288e+00 8.36823e+01 2.97653e+00
9.90000e-01 0.00000e+00 7.80433e-01 9.02253e-01 8.66142e-05 2.44557e-01 7.84233e+00 8.28336e+01 2.84795e+00
1.00000e+00 0.00000e+00 7.81352e-01 9.03778e-01 1.35494e-04 2.70353e-01 7.52461e+00 8.20019e+01 2.72522e+00
1.01000e+00 4.98924e-03 7.82577e-01 9.05313e-01 2.08487e-04 2.97250e-01 7.21921e+00 8.11865e+01 2.60803e+00
1.02000e+00 1.14740e-02 7.84100e-01 9.06858e-01 3.15719e-04 3.25138e-01 6.92566e+00 8.03871e+01 2.49612e+00
1.03000e+00 1.90915e-02 7.85908e-01 9.08413e-01 4.70772e-04 3.53899e-01 6.64351e+00 7.96030e+01 2.38925e+00
1.04000e+00 2.79755e-02 7.87995e-01 9.09979e-01 6.91553e-04 3.83410e-01 6.37230e+00 7.88340e+01 2.28717e+00
1.05000e+00 3.82593e-02 7.90346e-01 9.11554e-01 1.00128e-03 4.13543e-01 6.11161e+00 7.80795e+01 2.18965e+00
1.06000e+00 5.00716e-02 7.92955e-01 9.13140e-01 1.42956e-03 4.44165e-01 5.86105e+00 7.73392e+01 2.09648e+00
1.07000e+00 6.35339e-02 7.95809e-01 9.14736e-01 2.01356e-03 4.75145e-01 5.62021e+00 7.66126e+01 2.00745e+00
1.08000e+00 7.87571e-02 7.98900e-01 9.16341e-01 2.79918e-03 5.06351e-01 5.38873e+00 7.58995e+01 1.92238e+00
1.09000e+00 9.58377e-02 8.02218e-01 9.17956e-01 3.84222e-03 5.37654e-01 5.16624e+00 7.51993e+01 1.84106e+00
1.10000e+00 1.14856e-01 8.05753e-01 9.19579e-01 5.20950e-03 5.68927e-01 4.95239e+00 7.45118e+01 1.76333e+00
1.11000e+00 1.35871e-01 8.09495e-01 9.21211e-01 6.97981e-03 6.00049e-01 4.74686e+00 7.38366e+01 1.68903e+00
1.12000e+00 1.58922e-01 8.13435e-01 9.22851e-01 9.24465e-03 6.30905e-01 4.54932e+00 7.31735e+01 1.61799e+00
1.13000e+00 1.84024e-01 8.17562e-01 9.24498e-01 1.21087e-02 6.61384e-01 4.35946e+00 7.25220e+01 1.55005e+00
1.14000e+00 2.11167e-01 8.21868e-01 9.26152e-01 1.56898e-02 6.91386e-01 4.17700e+00 7.18818e+01 1.48509e+00
1.15000e+00 2.40317e-01 8.26342e-01 9.27813e-01 2.01188e-02 7.20815e-01 4.00163e+00 7.12528e+01 1.42296e+00
1.16000e+00 2.71412e-01 8.30976e-01 9.29480e-01 2.55385e-02 7.49586e-01 3.83310e+00 7.06346e+01 1.36353e+00
1.17000e+00 3.04370e-01 8.35758e-01 9.31151e-01 3.21026e-02 7.77621e-01 3.67114e+00 7.00269e+01 1.30668e+00
1.18000e+00 3.39082e-01 8.40680e-01 9.32827e-01 3.99733e-02 8.04851e-01 3.51548e+00 6.94294e+01 1.25230e+00
1.19000e+00 3.75419e-01 8.45731e-01 9.34507e-01 4.93197e-02 8.31216e-01 3.36590e+00 6.88420e+01 1.20026e+00
1.20000e+00 4.13233e-01 8.50903e-01 9.36190e-01 6.03139e-02 8.56661e-01 3.22216e+00 6.82643e+01 1.15046e+00
1.21000e+00 4.52357e-01 8.56184e-01 9.37874e-01 7.31283e-02 8.81144e-01 3.08402e+00 6.76961e+01 1.10281e+00
1.22000e+00 4.92611e-01 8.61567e-01 9.39560e-01 8.79318e-02 9.04628e-01 2.95128e+00 6.71373e+01 1.05721e+00
1.23000e+00 5.33803e-01 8.67039e-01 9.41246e-01 1.04886e-01 9.27084e-01 2.82373e+00 6.65875e+01 1.01355e+00
1.24000e+00 5.75733e-01 8.72593e-01 9.42931e-01 1.24139e-01 9.48491e-01 2.70117e+00 6.60465e+01 9.71769e-01
1.25000e+00 6.18195e-01 8.78216e-01 9.44615e-01 1.45825e-01 9.68833e-01 2.58340e+00 6.55142e+01 9.31767e-01
1.26000e+00 6.60981e-01 8.83901e-01 9.46296e-01 1.70058e-01 9.88102e-01 2.47024e+00 6.49903e+01 8.93469e-01
1.27000e+00 7.03881e-01 8.89636e-01 9.47974e-01 1.96927e-01 1.00630e+00 2.36152e+00 6.44747e+01 8.56799e-01
1.28000e+00 7.46691e-01 8.95412e-01 9.49647e-01 2.26495e-01 1.02342e+00 2.25706e+00 6.39671e+01 8.21685e-01
1.29000e+00 7.89210e-01 9.01219e-01 9.51314e-01 2.58794e-01 1.03947e+00 2.15670e+00 6.34674e+01 7.88058e-01
1.30000e+00 8.31245e-01 9.07047e-01 9.52975e-01 2.93824e-01 1.05447e+00 2.06028e+00 6.29754e+01 7.55853e-01
1.31000e+00 8.72612e-01 9.12884e-01 9.54628e-01 3.31552e-01 1.06843e+00 1.96765e+00 6.24909e+01 7.25006e-01
1.32000e+00 9.13140e-01 9.18724e-01 9.56272e-01 3.71907e-01 1.08138e+00 1.87867e+00 6.20137e+01 6.95460e-01
1.33000e+00 9.52667e-01 9.24553e-01 9.57906e-01 4.14787e-01 1.09332e+00 1.79319e+00 6.15438e+01 6.67155e-01
1.34000e+00 9.91048e-01 9.30363e-01 9.59529e-01 4.60052e-01 1.10430e+00 1.71109e+00 6.10808e+01 6.40039e-01
1.35000e+00 1.02815e+00 9.36143e-01 9.61140e-01 5.07533e-01 1.11433e+00 1.63223e+00 6.06248e+01 6.14059e-01
1.36000e+00 1.06385e+00 9.41885e-01 9.62738e-01 5.57026e-01 1.12345e+00 1.55649e+00 6.01755e+01 5.89166e-01
1.37000e+00 1.09805e+00 9.47576e-01 9.64321e-01 6.08303e-01 1.13168e+00 1.48376e+00 5.97327e+01 5.65312e-01
1.38000e+00 1.13067e+00 9.53210e-01 9.65889e-01 6.61108e-01 1.13907e+00 1.41391e+00 5.92964e+01 5.42454e-01
1.39000e+00 1.16162e+00 9.58775e-01 9.67441e-01 7.15165e-01 1.14563e+00 1.34684e+00 5.88664e+01 5.20547e-01
1.40000e+00 1.19085e+00 9.64262e-01 9.68975e-01 7.70184e-01 1.15141e+00 1.28244e+00 5.84426e+01 4.99550e-01
1.41000e+00 1.21831e+00 9.69663e-01 9.70490e-01 8.25857e-01 1.15644e+00 1.22062e+00 5.80248e+01 4.79425e-01
1.42000e+00 1.24397e+00 9.74968e-01 9.71986e-01 8.81874e-01 1.16075e+00 1.16128e+00 5.76130e+01 4.60134e-01
1.43000e+00 1.26782e+00 9.80168e-01 9.73460e-01 9.37918e-01 1.16438e+00 1.10432e+00 5.72069e+01 4.41641e-01
1.44000e+00 1.28983e+00 9.85257e-01 9.74914e-01 9.93673e-01 1.16736e+00 1.04965e+00 5.68065e+01 4.23911e-01
1.45000e+00 1.31003e+00 9.90223e-01 9.76344e-01 1.04883e+00 1.16973e+00 9.97194e-01 5.64117e+01 4.06914e-01
1.46000e+00 1.32842e+00 9.95062e-01 9.77751e-01 1.10309e+00 1.17152e+00 9.46865e-01 5.60224e+01 3.90616e-01
1.47000e+00 1.34501e+00 9.99765e-01 9.79133e-01 1.15616e+00 1.17277e+00 8.98584e-01 5.56384e+01 3.74989e-01
1.48000e+00 1.35986e+00 1.00433e+00 9.80490e-01 1.20777e+00 1.17349e+00 8.52276e-01 5.52596e+01 3.60003e-01
1.49000e+00 1.37298e+00 1.00874e+00 9.81820e-01 1.25766e+00 1.17374e+00 8.07869e-01 5.48859e+01 3.45633e-01
1.50000e+00 1.38443e+00 1.01299e+00 9.83124e-01 1.30561e+00 1.17353e+00 7.65291e-01 5.45173e+01 3.31850e-01
1.51000e+00 1.39425e+00 1.01709e+00 9.84399e-01 1.35141e+00 1.17290e+00 7.24477e-01 5.41536e+01 3.18632e-01
1.52000e+00 1.40249e+00 1.02102e+00 9.85645e-01 1.39486e+00 1.17188e+00 6.85361e-01 5.37948e+01 3.05953e-01
1.53000e+00 1.40923e+00 1.02478e+00 9.86862e-01 1.43581e+00 1.17049e+00 6.47883e-01 5.34407e+01 2.93792e-01
1.54000e+00 1.41451e+00 1.02837e+00 9.88049e-01 1.47413e+00 1.16876e+00 6.11981e-01 5.30912e+01 2.82126e-01
1.55000e+00 1.41840e+00 1.03178e+00 9.89206e-01 1.50970e+00 1.16672e+00 5.77600e-01 5.27463e+01 2.70935e-01
1.56000e+00 1.42097e+00 1.03501e+00 9.90330e-01 1.54245e+00 1.16439e+00 5.44683e-01 5.24059e+01 2.60199e-01
1.57000e+00 1.42229e+00 1.03806e+00 9.91423e-01 1.57231e+00 1.16180e+00 5.13178e-01 5.20699e+01 2.49898e-01
1.58000e+00 1.42241e+00 1.04093e+00 9.92484e-01 1.59924e+00 1.15897e+00 4.83035e-01 5.17382e+01 2.40015e-01
1.59000e+00 1.42141e+00 1.04361e+00 9.93512e-01 1.62325e+00 1.15591e+00 4.54203e-01 5.14107e+01 2.30532e-01
1.60000e+00 1.41935e+00 1.04611e+00 9.94507e-01 1.64433e+00 1.15267e+00 4.26636e-01 5.10873e+01 2.21432e-01
1.61000e+00 1.41631e+00 1.04842e+00 9.95468e-01 1.66251e+00 1.14924e+00 4.00287e-01 5.07681e+01 2.12700e-01
1.62000e+00 1.41234e+00 1.05055e+00 9.96395e-01 1.67785e+00 1.14566e+00 3.75114e-01 5.04528e+01 2.04320e-01
1.63000e+00 1.40752e+00 1.05249e+00 9.97288e-01 1.69040e+00 1.14193e+00 3.51074e-01 5.01415e+01 1.96277e-01
1.64000e+00 1.40191e+00 1.05425e+00 9.98147e-01 1.70024e+00 1.13808e+00 3.28126e-01 4.98340e+01 1.88559e-01
1.65000e+00 1.39556e+00 1.05583e+00 9.98972e-01 1.70746e+00 1.13413e+00 3.06230e-01 4.95303e+01 1.81150e-01
1.66000e+00 1.38854e+00 1.05723e+00 9.99762e-01 1.71216e+00 1.13008e+00 2.85348e-01 4.92303e+01 1.74040e-01
1.67000e+00 1.38091e+00 1.05846e+00 1.00052e+00 1.71445e+00 1.12595e+00 2.65445e-01 4.89339e+01 1.67214e-01
1.68000e+00 1.37272e+00 1.05951e+00 1.00124e+00 1.71445e+00 1.12177e+00 2.46483e-01 4.86412e+01 1.60662e-01
1.69000e+00 1.36403e+00 1.06040e+00 1.00192e+00 1.71228e+00 1.11753e+00 2.28429e-01 4.83519e+01 1.54372e-01
1.70000e+00 1.35489e+00 1.06113e+00 1.00258e+00 1.70807e+00 1.11325e+00 2.11250e-01 4.80661e+01 1.48333e-01
1.71000e+00 1.34534e+00 1.06169e+00 1.00319e+00 1.70194e+00 1.10895e+00 1.94913e-01 4.77837e+01 1.42536e-01
1.72000e+00 1.33545e+00 1.06210e+00 1.00378e+00 1.69403e+00 1.10463e+00 1.79387e-01 4.75047e+01 1.36969e-01
1.73000e+00 1.32524e+00 1.06235e+00 1.00433e+00 1.68447e+00 1.10031e+00 1.64642e-01 4.72289e+01 1.31625e-01
1.74000e+00 1.31476e+00 1.06247e+00 1.00484e+00 1.67339e+00 1.09599e+00 1.50650e-01 4.69563e+01 1.26493e-01
1.75000e+00 1.30406e+00 1.06244e+00 1.00533e+00 1.66092e+00 1.09168e+00 1.37380e-01 4.66869e+01 1.21566e-01
1.76000e+00 1.29317e+00 1.06228e+00 1.00578e+00 1.64719e+00 1.08739e+00 1.24806e-01 4.64206e+01 1.16834e-01
1.77000e+00 1.28213e+00 1.06198e+00 1.00620e+00 1.63231e+00 1.08314e+00 1.12902e-01 4.61574e+01 1.12290e-01
1.78000e+00 1.27097e+00 1.06157e+00 1.00658e+00 1.61641e+00 1.07892e+00 1.01640e-01 4.58971e+01 1.07926e-01
1.79000e+00 1.25973e+00 1.06104e+00 1.00694e+00 1.59961e+00 1.07474e+00 9.09972e-02 4.56398e+01 1.03736e-01
1.80000e+00 1.24843e+00 1.06039e+00 1.00727e+00 1.58201e+00 1.07061e+00 8.09478e-02 4.53854e+01 9.97104e-02
1.81000e+00 1.23711e+00 1.05964e+00 1.00756e+00 1.56372e+00 1.06654e+00 7.14684e-02 4.51339e+01 9.58445e-02
