# Zach Johnson Dec/11/2023 CHNC for TCCW Paper
# Ti=5.000e-01[eV], Tie=4.419e+01[eV] , Te_c=4.419e+01[eV], n_i=5.010e+23[1/cc], n_e=2.004e+24[1/cc]
# ri=1.476, Zbar=4.000, Rc=0.275[AU], Γii=5.899e+02, Γei=-1.669e+00 , Γee=4.172e-01, κ=2.046e+00
r/ri        g_ii        g_ei        g_ee        OCP:g_ii    Yuk:g_ii    βu_ii_eff   βu_OCP      βu_Yuk    
1.00000e-02 3.88769e+01 4.37420e+00 2.11937e+00 0.00000e+00 0.00000e+00 5.80310e+04 5.90354e+04 5.75218e+04
2.00000e-02 3.89853e+01 4.15710e+00 2.14268e+00 0.00000e+00 0.00000e+00 2.85355e+04 2.95397e+04 2.80444e+04
3.00000e-02 3.84452e+01 3.91020e+00 2.12270e+00 0.00000e+00 0.00000e+00 1.87039e+04 1.97078e+04 1.82305e+04
4.00000e-02 3.72692e+01 3.60751e+00 2.08413e+00 0.00000e+00 0.00000e+00 1.37883e+04 1.47918e+04 1.33323e+04
5.00000e-02 3.55346e+01 3.27671e+00 2.02394e+00 0.00000e+00 0.00000e+00 1.08393e+04 1.18421e+04 1.04001e+04
6.00000e-02 3.33107e+01 2.92707e+00 1.94237e+00 0.00000e+00 0.00000e+00 8.87355e+03 9.87570e+03 8.45087e+03
7.00000e-02 3.06852e+01 2.58428e+00 1.84551e+00 0.00000e+00 0.00000e+00 7.46975e+03 8.47105e+03 7.06315e+03
8.00000e-02 2.77462e+01 2.26031e+00 1.73203e+00 0.00000e+00 0.00000e+00 6.41720e+03 7.41754e+03 6.02630e+03
9.00000e-02 2.45878e+01 1.97832e+00 1.60829e+00 0.00000e+00 0.00000e+00 5.59886e+03 6.59810e+03 5.22326e+03
1.00000e-01 2.13005e+01 1.74774e+00 1.47653e+00 0.00000e+00 0.00000e+00 4.94449e+03 5.94251e+03 4.58383e+03
1.10000e-01 1.79752e+01 1.58193e+00 1.34318e+00 0.00000e+00 0.00000e+00 4.40941e+03 5.40609e+03 4.06331e+03
1.20000e-01 1.46918e+01 1.48704e+00 1.21181e+00 0.00000e+00 0.00000e+00 3.96381e+03 4.95903e+03 3.63191e+03
1.30000e-01 1.15279e+01 1.46426e+00 1.08797e+00 0.00000e+00 0.00000e+00 3.58708e+03 4.58072e+03 3.26902e+03
1.40000e-01 8.54631e+00 1.51476e+00 9.74766e-01 0.00000e+00 0.00000e+00 3.26447e+03 4.25642e+03 2.95990e+03
1.50000e-01 5.80340e+00 1.63110e+00 8.76699e-01 0.00000e+00 0.00000e+00 2.98519e+03 3.97532e+03 2.69375e+03
1.60000e-01 3.34002e+00 1.80582e+00 7.95276e-01 0.00000e+00 0.00000e+00 2.74112e+03 3.72932e+03 2.46248e+03
1.70000e-01 1.18970e+00 2.02931e+00 7.33170e-01 0.00000e+00 0.00000e+00 2.52607e+03 3.51223e+03 2.25989e+03
1.80000e-01 0.00000e+00 2.29024e+00 6.90143e-01 0.00000e+00 0.00000e+00 2.33522e+03 3.31922e+03 2.08117e+03
1.90000e-01 0.00000e+00 2.57402e+00 6.66985e-01 0.00000e+00 0.00000e+00 2.16476e+03 3.14650e+03 1.92252e+03
2.00000e-01 0.00000e+00 2.84598e+00 6.61640e-01 0.00000e+00 0.00000e+00 2.01164e+03 2.99101e+03 1.78090e+03
2.10000e-01 0.00000e+00 3.08760e+00 6.72678e-01 0.00000e+00 0.00000e+00 1.87341e+03 2.85030e+03 1.65384e+03
2.20000e-01 0.00000e+00 3.29411e+00 6.97565e-01 0.00000e+00 0.00000e+00 1.74804e+03 2.72235e+03 1.53934e+03
2.30000e-01 0.00000e+00 3.46007e+00 7.33521e-01 0.00000e+00 0.00000e+00 1.63387e+03 2.60549e+03 1.43573e+03
2.40000e-01 0.00000e+00 3.58457e+00 7.76788e-01 0.00000e+00 0.00000e+00 1.52950e+03 2.49834e+03 1.34163e+03
2.50000e-01 0.00000e+00 3.66750e+00 8.24586e-01 0.00000e+00 0.00000e+00 1.43378e+03 2.39972e+03 1.25588e+03
2.60000e-01 0.00000e+00 3.71100e+00 8.74187e-01 0.00000e+00 0.00000e+00 1.34571e+03 2.30866e+03 1.17750e+03
2.70000e-01 0.00000e+00 3.71747e+00 9.21683e-01 0.00000e+00 0.00000e+00 1.26445e+03 2.22431e+03 1.10564e+03
2.80000e-01 0.00000e+00 3.69065e+00 9.66268e-01 0.00000e+00 0.00000e+00 1.18928e+03 2.14596e+03 1.03959e+03
2.90000e-01 0.00000e+00 3.63337e+00 1.00442e+00 0.00000e+00 0.00000e+00 1.11958e+03 2.07298e+03 9.78739e+02
3.00000e-01 0.00000e+00 3.54934e+00 1.03598e+00 0.00000e+00 0.00000e+00 1.05480e+03 2.00484e+03 9.22545e+02
3.10000e-01 0.00000e+00 3.44101e+00 1.05901e+00 0.00000e+00 0.00000e+00 9.94489e+02 1.94106e+03 8.70545e+02
3.20000e-01 0.00000e+00 3.31098e+00 1.07387e+00 0.00000e+00 0.00000e+00 9.38222e+02 1.88124e+03 8.22332e+02
3.30000e-01 5.63302e-01 3.16158e+00 1.07965e+00 0.00000e+00 0.00000e+00 8.85642e+02 1.82501e+03 7.77548e+02
3.40000e-01 1.06938e+00 2.99485e+00 1.07745e+00 0.00000e+00 0.00000e+00 8.36428e+02 1.77207e+03 7.35878e+02
3.50000e-01 1.46838e+00 2.81322e+00 1.06719e+00 0.00000e+00 0.00000e+00 7.90299e+02 1.72212e+03 6.97045e+02
3.60000e-01 1.75171e+00 2.61963e+00 1.05105e+00 0.00000e+00 0.00000e+00 7.47002e+02 1.67493e+03 6.60801e+02
3.70000e-01 1.91693e+00 2.41732e+00 1.02905e+00 0.00000e+00 0.00000e+00 7.06313e+02 1.63025e+03 6.26925e+02
3.80000e-01 1.96736e+00 2.21049e+00 1.00378e+00 0.00000e+00 0.00000e+00 6.68031e+02 1.58791e+03 5.95220e+02
3.90000e-01 1.91129e+00 2.00378e+00 9.76172e-01 0.00000e+00 0.00000e+00 6.31976e+02 1.54771e+03 5.65510e+02
4.00000e-01 1.76129e+00 1.80245e+00 9.48673e-01 0.00000e+00 0.00000e+00 5.97984e+02 1.50949e+03 5.37637e+02
4.10000e-01 1.53404e+00 1.61195e+00 9.22210e-01 0.00000e+00 0.00000e+00 5.65909e+02 1.47312e+03 5.11457e+02
4.20000e-01 1.24786e+00 1.43739e+00 8.98942e-01 0.00000e+00 0.00000e+00 5.35618e+02 1.43845e+03 4.86842e+02
4.30000e-01 9.22506e-01 1.28432e+00 8.79755e-01 0.00000e+00 0.00000e+00 5.06989e+02 1.40538e+03 4.63674e+02
4.40000e-01 5.78242e-01 1.15608e+00 8.65799e-01 0.00000e+00 0.00000e+00 4.79912e+02 1.37379e+03 4.41848e+02
4.50000e-01 2.33805e-01 1.05651e+00 8.57655e-01 0.00000e+00 0.00000e+00 4.54287e+02 1.34358e+03 4.21266e+02
4.60000e-01 0.00000e+00 9.86620e-01 8.55533e-01 0.00000e+00 0.00000e+00 4.30022e+02 1.31466e+03 4.01842e+02
4.70000e-01 0.00000e+00 9.47182e-01 8.59287e-01 0.00000e+00 0.00000e+00 4.07032e+02 1.28695e+03 3.83495e+02
4.80000e-01 0.00000e+00 9.36415e-01 8.68527e-01 0.00000e+00 0.00000e+00 3.85239e+02 1.26038e+03 3.66151e+02
4.90000e-01 0.00000e+00 9.51915e-01 8.82267e-01 0.00000e+00 0.00000e+00 3.64573e+02 1.23487e+03 3.49743e+02
5.00000e-01 0.00000e+00 9.89503e-01 8.99591e-01 0.00000e+00 0.00000e+00 3.44967e+02 1.21037e+03 3.34210e+02
5.10000e-01 0.00000e+00 1.04416e+00 9.19014e-01 0.00000e+00 0.00000e+00 3.26361e+02 1.18681e+03 3.19494e+02
5.20000e-01 0.00000e+00 1.11049e+00 9.39268e-01 0.00000e+00 0.00000e+00 3.08697e+02 1.16414e+03 3.05544e+02
5.30000e-01 0.00000e+00 1.18293e+00 9.58937e-01 0.00000e+00 0.00000e+00 2.91924e+02 1.14231e+03 2.92311e+02
5.40000e-01 0.00000e+00 1.25570e+00 9.76492e-01 0.00000e+00 0.00000e+00 2.75993e+02 1.12127e+03 2.79751e+02
5.50000e-01 0.00000e+00 1.32414e+00 9.90849e-01 0.00000e+00 0.00000e+00 2.60858e+02 1.10098e+03 2.67822e+02
5.60000e-01 0.00000e+00 1.38379e+00 1.00116e+00 0.00000e+00 0.00000e+00 2.46478e+02 1.08140e+03 2.56487e+02
5.70000e-01 0.00000e+00 1.43183e+00 1.00649e+00 0.00000e+00 0.00000e+00 2.32813e+02 1.06249e+03 2.45710e+02
5.80000e-01 0.00000e+00 1.46573e+00 1.00688e+00 0.00000e+00 0.00000e+00 2.19826e+02 1.04422e+03 2.35458e+02
5.90000e-01 0.00000e+00 1.48479e+00 1.00207e+00 0.00000e+00 0.00000e+00 2.07483e+02 1.02656e+03 2.25701e+02
6.00000e-01 0.00000e+00 1.48862e+00 9.92833e-01 0.00000e+00 0.00000e+00 1.95751e+02 1.00947e+03 2.16410e+02
6.10000e-01 0.00000e+00 1.47804e+00 9.79895e-01 0.00000e+00 0.00000e+00 1.84600e+02 9.92933e+02 2.07560e+02
6.20000e-01 0.00000e+00 1.45453e+00 9.64139e-01 0.00000e+00 0.00000e+00 1.74001e+02 9.76916e+02 1.99125e+02
6.30000e-01 0.00000e+00 1.41960e+00 9.46935e-01 0.00000e+00 0.00000e+00 1.63928e+02 9.61396e+02 1.91083e+02
6.40000e-01 4.01269e-02 1.37546e+00 9.29686e-01 0.00000e+00 0.00000e+00 1.54355e+02 9.46351e+02 1.83411e+02
6.50000e-01 6.59414e-02 1.32428e+00 9.13486e-01 0.00000e+00 0.00000e+00 1.45259e+02 9.31758e+02 1.76091e+02
6.60000e-01 6.81026e-02 1.26809e+00 8.99712e-01 0.00000e+00 0.00000e+00 1.36616e+02 9.17597e+02 1.69102e+02
6.70000e-01 4.85329e-02 1.20915e+00 8.89133e-01 0.00000e+00 0.00000e+00 1.28406e+02 9.03850e+02 1.62429e+02
6.80000e-01 9.94386e-03 1.14911e+00 8.82468e-01 0.00000e+00 0.00000e+00 1.20609e+02 8.90498e+02 1.56053e+02
6.90000e-01 0.00000e+00 1.08993e+00 8.80080e-01 0.00000e+00 0.00000e+00 1.13205e+02 8.77524e+02 1.49960e+02
7.00000e-01 0.00000e+00 1.03335e+00 8.81831e-01 0.00000e+00 0.00000e+00 1.06176e+02 8.64912e+02 1.44136e+02
7.10000e-01 0.00000e+00 9.80776e-01 8.87391e-01 0.00000e+00 0.00000e+00 9.95055e+01 8.52648e+02 1.38566e+02
7.20000e-01 0.00000e+00 9.33996e-01 8.96066e-01 0.00000e+00 0.00000e+00 9.31767e+01 8.40716e+02 1.33237e+02
7.30000e-01 0.00000e+00 8.94168e-01 9.07054e-01 0.00000e+00 0.00000e+00 8.71742e+01 8.29105e+02 1.28138e+02
7.40000e-01 0.00000e+00 8.62874e-01 9.19215e-01 0.00000e+00 0.00000e+00 8.14832e+01 8.17800e+02 1.23258e+02
7.50000e-01 0.00000e+00 8.41168e-01 9.31705e-01 0.00000e+00 0.00000e+00 7.60897e+01 8.06790e+02 1.18585e+02
7.60000e-01 0.00000e+00 8.30111e-01 9.43451e-01 0.00000e+00 0.00000e+00 7.09804e+01 7.96063e+02 1.14109e+02
7.70000e-01 0.00000e+00 8.30172e-01 9.53525e-01 0.00000e+00 0.00000e+00 6.61424e+01 7.85609e+02 1.09821e+02
7.80000e-01 0.00000e+00 8.41605e-01 9.61467e-01 0.00000e+00 0.00000e+00 6.15636e+01 7.75417e+02 1.05713e+02
7.90000e-01 0.00000e+00 8.63999e-01 9.66813e-01 0.00000e+00 0.00000e+00 5.72324e+01 7.65477e+02 1.01774e+02
8.00000e-01 0.00000e+00 8.96323e-01 9.69354e-01 0.00000e+00 0.00000e+00 5.31376e+01 7.55781e+02 9.79986e+01
8.10000e-01 0.00000e+00 9.37001e-01 9.69204e-01 0.00000e+00 0.00000e+00 4.92685e+01 7.46319e+02 9.43776e+01
8.20000e-01 0.00000e+00 9.83675e-01 9.66613e-01 0.00000e+00 1.11645e-01 4.56151e+01 7.37083e+02 9.09042e+01
8.30000e-01 0.00000e+00 1.03362e+00 9.62030e-01 0.00000e+00 5.97554e-01 4.21676e+01 7.28064e+02 8.75717e+01
8.40000e-01 0.00000e+00 1.08344e+00 9.55955e-01 3.28263e-01 1.22660e+00 3.89167e+01 7.19256e+02 8.43736e+01
8.50000e-01 0.00000e+00 1.12989e+00 9.48889e-01 9.88576e-01 1.99135e+00 3.58533e+01 7.10651e+02 8.13038e+01
8.60000e-01 0.00000e+00 1.16944e+00 9.41450e-01 1.89743e+00 2.85967e+00 3.29691e+01 7.02242e+02 7.83566e+01
8.70000e-01 6.06716e-02 1.19894e+00 9.34100e-01 3.04304e+00 3.77690e+00 3.02557e+01 6.94022e+02 7.55264e+01
8.80000e-01 1.13588e-01 1.21576e+00 9.26958e-01 4.35765e+00 4.67410e+00 2.77053e+01 6.85985e+02 7.28080e+01
8.90000e-01 1.50796e-01 1.21802e+00 9.20620e-01 5.72317e+00 5.47992e+00 2.53103e+01 6.78125e+02 7.01966e+01
9.00000e-01 1.70425e-01 1.20466e+00 9.14722e-01 6.99417e+00 6.13272e+00 2.30634e+01 6.70436e+02 6.76873e+01
9.10000e-01 1.72104e-01 1.17576e+00 9.09609e-01 8.03036e+00 6.58992e+00 2.09578e+01 6.62913e+02 6.52759e+01
9.20000e-01 1.56466e-01 1.13199e+00 9.04779e-01 8.72710e+00 6.83248e+00 1.89866e+01 6.55549e+02 6.29579e+01
9.30000e-01 1.25311e-01 1.07546e+00 9.00312e-01 9.03409e+00 6.86450e+00 1.71435e+01 6.48342e+02 6.07294e+01
9.40000e-01 8.11813e-02 1.00842e+00 8.95685e-01 8.95840e+00 6.70889e+00 1.54223e+01 6.41284e+02 5.85866e+01
9.50000e-01 2.74522e-02 9.34159e-01 8.90964e-01 8.55384e+00 6.40097e+00 1.38170e+01 6.34372e+02 5.65258e+01
9.60000e-01 0.00000e+00 8.56008e-01 8.85686e-01 7.90278e+00 5.98167e+00 1.23219e+01 6.27601e+02 5.45435e+01
9.70000e-01 0.00000e+00 7.77462e-01 8.80021e-01 7.09687e+00 5.49182e+00 1.09316e+01 6.20967e+02 5.26364e+01
9.80000e-01 0.00000e+00 7.02071e-01 8.73885e-01 6.22156e+00 4.96792e+00 9.64080e+00 6.14465e+02 5.08014e+01
9.90000e-01 0.00000e+00 6.32725e-01 8.67423e-01 5.34638e+00 4.43984e+00 8.44440e+00 6.08093e+02 4.90355e+01
1.00000e+00 0.00000e+00 5.72110e-01 8.60881e-01 4.52118e+00 3.92998e+00 7.33754e+00 6.01845e+02 4.73358e+01
1.01000e+00 0.00000e+00 5.22163e-01 8.54597e-01 3.77660e+00 3.45356e+00 6.31555e+00 5.95719e+02 4.56996e+01
1.02000e+00 0.00000e+00 4.84192e-01 8.48883e-01 3.12728e+00 3.01958e+00 5.37394e+00 5.89710e+02 4.41243e+01
1.03000e+00 0.00000e+00 4.58691e-01 8.44078e-01 2.57593e+00 2.63210e+00 4.50838e+00 5.83815e+02 4.26074e+01
1.04000e+00 0.00000e+00 4.45695e-01 8.40496e-01 2.11745e+00 2.29158e+00 3.71473e+00 5.78032e+02 4.11465e+01
1.05000e+00 0.00000e+00 4.44623e-01 8.38302e-01 1.74229e+00 1.99597e+00 2.98900e+00 5.72357e+02 3.97394e+01
1.06000e+00 0.00000e+00 4.54293e-01 8.37657e-01 1.43897e+00 1.74175e+00 2.32738e+00 5.66787e+02 3.83838e+01
1.07000e+00 0.00000e+00 4.73594e-01 8.38500e-01 1.19581e+00 1.52462e+00 1.72619e+00 5.61318e+02 3.70778e+01
1.08000e+00 0.00000e+00 5.00888e-01 8.40780e-01 1.00187e+00 1.34001e+00 1.18192e+00 5.55949e+02 3.58194e+01
1.09000e+00 0.00000e+00 5.34705e-01 8.44137e-01 8.47531e-01 1.18346e+00 6.91185e-01 5.50677e+02 3.46067e+01
1.10000e+00 0.00000e+00 5.73524e-01 8.48379e-01 7.24615e-01 1.05083e+00 2.50756e-01 5.45499e+02 3.34378e+01
1.11000e+00 0.00000e+00 6.15923e-01 8.53138e-01 6.26386e-01 9.38376e-01 -1.42467e-01 5.40412e+02 3.23111e+01
1.12000e+00 0.00000e+00 6.60436e-01 8.57928e-01 5.47400e-01 8.42821e-01 -4.91453e-01 5.35414e+02 3.12248e+01
1.13000e+00 0.00000e+00 7.05759e-01 8.62553e-01 4.83334e-01 7.61345e-01 -7.99042e-01 5.30503e+02 3.01775e+01
1.14000e+00 0.00000e+00 7.50526e-01 8.66552e-01 4.30795e-01 6.91556e-01 -1.06795e+00 5.25677e+02 2.91677e+01
1.15000e+00 5.52480e-02 7.93348e-01 8.69747e-01 3.87143e-01 6.31451e-01 -1.30077e+00 5.20933e+02 2.81937e+01
1.16000e+00 1.80132e-01 8.32868e-01 8.71906e-01 3.50342e-01 5.79366e-01 -1.50000e+00 5.16270e+02 2.72544e+01
1.17000e+00 3.02992e-01 8.67629e-01 8.73044e-01 3.18830e-01 5.33931e-01 -1.66798e+00 5.11685e+02 2.63483e+01
1.18000e+00 4.15459e-01 8.96247e-01 8.73005e-01 2.91416e-01 4.94025e-01 -1.80700e+00 5.07176e+02 2.54742e+01
1.19000e+00 5.09774e-01 9.17438e-01 8.71962e-01 2.67194e-01 4.58736e-01 -1.91918e+00 5.02742e+02 2.46309e+01
1.20000e+00 5.79866e-01 9.30159e-01 8.70121e-01 2.45481e-01 4.27326e-01 -2.00660e+00 4.98381e+02 2.38171e+01
1.21000e+00 6.22271e-01 9.33589e-01 8.67655e-01 2.25764e-01 3.99204e-01 -2.07119e+00 4.94090e+02 2.30319e+01
1.22000e+00 6.36505e-01 9.27673e-01 8.64886e-01 2.07662e-01 3.73894e-01 -2.11481e+00 4.89869e+02 2.22740e+01
1.23000e+00 6.25141e-01 9.12570e-01 8.62126e-01 1.90892e-01 3.51022e-01 -2.13922e+00 4.85716e+02 2.15426e+01
1.24000e+00 5.93476e-01 8.89417e-01 8.59787e-01 1.75252e-01 3.30292e-01 -2.14610e+00 4.81629e+02 2.08365e+01
1.25000e+00 5.48978e-01 8.59551e-01 8.58218e-01 1.60599e-01 3.11476e-01 -2.13702e+00 4.77607e+02 2.01549e+01
1.26000e+00 5.00397e-01 8.25187e-01 8.57713e-01 1.46836e-01 2.94401e-01 -2.11348e+00 4.73648e+02 1.94968e+01
1.27000e+00 4.56939e-01 7.88481e-01 8.58627e-01 1.33902e-01 2.78937e-01 -2.07690e+00 4.69751e+02 1.88614e+01
1.28000e+00 4.27443e-01 7.51995e-01 8.61212e-01 1.21768e-01 2.64994e-01 -2.02861e+00 4.65915e+02 1.82479e+01
1.29000e+00 4.19558e-01 7.18039e-01 8.65419e-01 1.10425e-01 2.52511e-01 -1.96989e+00 4.62137e+02 1.76554e+01
1.30000e+00 4.39119e-01 6.88893e-01 8.71544e-01 9.98843e-02 2.41455e-01 -1.90192e+00 4.58418e+02 1.70831e+01
1.31000e+00 4.89828e-01 6.66162e-01 8.79245e-01 9.01721e-02 2.31813e-01 -1.82581e+00 4.54755e+02 1.65304e+01
1.32000e+00 5.73131e-01 6.51249e-01 8.88420e-01 8.13292e-02 2.23593e-01 -1.74262e+00 4.51147e+02 1.59965e+01
1.33000e+00 6.87900e-01 6.44565e-01 8.98690e-01 7.34082e-02 2.16815e-01 -1.65334e+00 4.47594e+02 1.54807e+01
1.34000e+00 8.30798e-01 6.46305e-01 9.09764e-01 6.64730e-02 2.11517e-01 -1.55888e+00 4.44094e+02 1.49824e+01
1.35000e+00 9.96534e-01 6.55746e-01 9.20968e-01 6.05984e-02 2.07747e-01 -1.46011e+00 4.40647e+02 1.45010e+01
1.36000e+00 1.17787e+00 6.71896e-01 9.32097e-01 5.58698e-02 2.05563e-01 -1.35784e+00 4.37250e+02 1.40358e+01
1.37000e+00 1.36630e+00 6.93177e-01 9.42405e-01 5.23838e-02 2.05031e-01 -1.25282e+00 4.33903e+02 1.35862e+01
1.38000e+00 1.55206e+00 7.18014e-01 9.51688e-01 5.02480e-02 2.06227e-01 -1.14574e+00 4.30606e+02 1.31518e+01
1.39000e+00 1.72474e+00 7.44570e-01 9.59572e-01 4.95820e-02 2.09233e-01 -1.03725e+00 4.27357e+02 1.27319e+01
1.40000e+00 1.87380e+00 7.71279e-01 9.65696e-01 5.05178e-02 2.14134e-01 -9.27951e-01 4.24155e+02 1.23260e+01
1.41000e+00 1.98944e+00 7.96781e-01 9.70148e-01 5.31999e-02 2.21022e-01 -8.18395e-01 4.20999e+02 1.19337e+01
1.42000e+00 2.06337e+00 8.20147e-01 9.72780e-01 5.77867e-02 2.29990e-01 -7.09090e-01 4.17888e+02 1.15545e+01
1.43000e+00 2.09016e+00 8.40872e-01 9.73882e-01 6.44498e-02 2.41134e-01 -6.00504e-01 4.14823e+02 1.11879e+01
1.44000e+00 2.06776e+00 8.58964e-01 9.73538e-01 7.33745e-02 2.54549e-01 -4.93061e-01 4.11801e+02 1.08334e+01
1.45000e+00 1.99783e+00 8.74723e-01 9.72225e-01 8.47593e-02 2.70328e-01 -3.87152e-01 4.08822e+02 1.04907e+01
1.46000e+00 1.88527e+00 8.88972e-01 9.70178e-01 9.88147e-02 2.88559e-01 -2.83129e-01 4.05885e+02 1.01593e+01
1.47000e+00 1.73757e+00 9.02422e-01 9.67896e-01 1.15762e-01 3.09328e-01 -1.81309e-01 4.02989e+02 9.83879e+00
1.48000e+00 1.56353e+00 9.16152e-01 9.65633e-01 1.35832e-01 3.32709e-01 -8.19779e-02 4.00135e+02 9.52887e+00
1.49000e+00 1.37266e+00 9.30937e-01 9.63779e-01 1.59259e-01 3.58768e-01 1.46090e-02 3.97320e+02 9.22913e+00
1.50000e+00 1.17421e+00 9.47519e-01 9.62500e-01 1.86281e-01 3.87557e-01 1.08227e-01 3.94544e+02 8.93922e+00
1.51000e+00 9.77003e-01 9.66300e-01 9.61937e-01 2.17131e-01 4.19113e-01 1.98677e-01 3.91807e+02 8.65881e+00
1.52000e+00 7.89177e-01 9.87467e-01 9.62152e-01 2.52034e-01 4.53453e-01 2.85789e-01 3.89108e+02 8.38756e+00
1.53000e+00 6.17894e-01 1.01080e+00 9.62993e-01 2.91198e-01 4.90576e-01 3.69414e-01 3.86446e+02 8.12516e+00
1.54000e+00 4.69492e-01 1.03579e+00 9.64415e-01 3.34809e-01 5.30455e-01 4.49429e-01 3.83821e+02 7.87130e+00
1.55000e+00 3.49184e-01 1.06171e+00 9.66219e-01 3.83021e-01 5.73041e-01 5.25731e-01 3.81232e+02 7.62569e+00
1.56000e+00 2.60999e-01 1.08749e+00 9.68190e-01 4.35946e-01 6.18252e-01 5.98238e-01 3.78678e+02 7.38806e+00
1.57000e+00 2.07814e-01 1.11216e+00 9.70180e-01 4.93648e-01 6.65980e-01 6.66886e-01 3.76159e+02 7.15813e+00
1.58000e+00 1.91133e-01 1.13452e+00 9.72085e-01 5.56130e-01 7.16086e-01 7.31631e-01 3.73674e+02 6.93563e+00
1.59000e+00 2.11272e-01 1.15365e+00 9.73810e-01 6.23332e-01 7.68396e-01 7.92442e-01 3.71222e+02 6.72032e+00
1.60000e+00 2.67225e-01 1.16884e+00 9.75312e-01 6.95117e-01 8.22703e-01 8.49307e-01 3.68804e+02 6.51195e+00
1.61000e+00 3.56852e-01 1.17964e+00 9.76773e-01 7.71265e-01 8.78763e-01 9.02225e-01 3.66418e+02 6.31029e+00
1.62000e+00 4.77010e-01 1.18614e+00 9.78153e-01 8.51474e-01 9.36292e-01 9.51211e-01 3.64064e+02 6.11511e+00
1.63000e+00 6.23637e-01 1.18859e+00 9.79713e-01 9.35352e-01 9.94967e-01 9.96289e-01 3.61742e+02 5.92619e+00
1.64000e+00 7.91874e-01 1.18768e+00 9.81528e-01 1.02241e+00 1.05442e+00 1.03750e+00 3.59450e+02 5.74333e+00
1.65000e+00 9.76338e-01 1.18416e+00 9.83692e-01 1.11208e+00 1.11421e+00 1.07488e+00 3.57188e+02 5.56631e+00
1.66000e+00 1.17121e+00 1.17892e+00 9.86335e-01 1.20368e+00 1.17387e+00 1.10850e+00 3.54957e+02 5.39495e+00
1.67000e+00 1.37043e+00 1.17270e+00 9.89441e-01 1.29644e+00 1.23285e+00 1.13842e+00 3.52754e+02 5.22905e+00
1.68000e+00 1.56770e+00 1.16618e+00 9.92938e-01 1.38949e+00 1.29052e+00 1.16471e+00 3.50581e+02 5.06844e+00
1.69000e+00 1.75677e+00 1.15979e+00 9.96772e-01 1.48181e+00 1.34620e+00 1.18744e+00 3.48436e+02 4.91293e+00
1.70000e+00 1.93143e+00 1.15375e+00 1.00070e+00 1.57227e+00 1.39911e+00 1.20671e+00 3.46319e+02 4.76236e+00
1.71000e+00 2.08571e+00 1.14809e+00 1.00460e+00 1.65957e+00 1.44847e+00 1.22261e+00 3.44229e+02 4.61657e+00
1.72000e+00 2.21411e+00 1.14266e+00 1.00821e+00 1.74223e+00 1.49341e+00 1.23523e+00 3.42166e+02 4.47539e+00
1.73000e+00 2.31199e+00 1.13722e+00 1.01136e+00 1.81861e+00 1.53312e+00 1.24467e+00 3.40129e+02 4.33868e+00
1.74000e+00 2.37569e+00 1.13152e+00 1.01386e+00 1.88691e+00 1.56682e+00 1.25103e+00 3.38119e+02 4.20628e+00
1.75000e+00 2.40335e+00 1.12532e+00 1.01563e+00 1.94529e+00 1.59383e+00 1.25443e+00 3.36134e+02 4.07806e+00
1.76000e+00 2.39474e+00 1.11846e+00 1.01661e+00 1.99191e+00 1.61363e+00 1.25496e+00 3.34175e+02 3.95387e+00
1.77000e+00 2.35161e+00 1.11102e+00 1.01683e+00 2.02512e+00 1.62588e+00 1.25275e+00 3.32240e+02 3.83360e+00
1.78000e+00 2.27752e+00 1.10302e+00 1.01641e+00 2.04362e+00 1.63048e+00 1.24790e+00 3.30329e+02 3.71709e+00
1.79000e+00 2.17751e+00 1.09482e+00 1.01547e+00 2.04665e+00 1.62756e+00 1.24053e+00 3.28442e+02 3.60425e+00
1.80000e+00 2.05758e+00 1.08679e+00 1.01426e+00 2.03408e+00 1.61747e+00 1.23075e+00 3.26579e+02 3.49493e+00
1.81000e+00 1.92436e+00 1.07941e+00 1.01295e+00 2.00651e+00 1.60079e+00 1.21868e+00 3.24738e+02 3.38904e+00
