# Zach Johnson Dec/11/2023 CHNC for TCCW Paper
# Ti=1.000e+02[eV], Tie=1.021e+02[eV] , Te_c=1.021e+02[eV], n_i=5.980e+23[1/cc], n_e=5.980e+23[1/cc]
# ri=1.391, Zbar=1.000, Rc=0.000[AU], Γii=1.956e-01, Γei=-1.915e-01 , Γee=1.915e-01, κ=7.517e-01
r/ri        g_ii        g_ei        g_ee        OCP:g_ii    Yuk:g_ii    βu_ii_eff   βu_OCP      βu_Yuk    
1.00000e-02 0.00000e+00 2.94815e+00 2.44607e-01 0.00000e+00 0.00000e+00 1.94083e+01 1.95551e+01 1.94084e+01
2.00000e-02 6.82529e-05 2.86754e+00 2.48569e-01 6.40518e-05 6.82236e-05 9.63077e+00 9.77754e+00 9.63140e+00
3.00000e-02 1.77720e-03 2.78944e+00 2.52949e-01 1.66960e-03 1.77778e-03 6.37165e+00 6.51836e+00 6.37277e+00
4.00000e-02 9.06591e-03 2.71387e+00 2.57757e-01 8.51802e-03 9.06496e-03 4.74215e+00 4.88877e+00 4.74373e+00
5.00000e-02 2.40979e-02 2.64085e+00 2.62999e-01 2.26441e-02 2.40851e-02 3.76450e+00 3.91102e+00 3.76651e+00
6.00000e-02 4.62369e-02 2.57036e+00 2.68681e-01 4.34532e-02 4.61936e-02 3.11280e+00 3.25918e+00 3.11522e+00
7.00000e-02 7.36380e-02 2.50242e+00 2.74808e-01 6.92151e-02 7.35411e-02 2.64736e+00 2.79358e+00 2.65016e+00
8.00000e-02 1.04388e-01 2.43699e+00 2.81379e-01 9.81351e-02 1.04214e-01 2.29835e+00 2.44438e+00 2.30149e+00
9.00000e-02 1.36926e-01 2.37406e+00 2.88396e-01 1.28749e-01 1.36652e-01 2.02695e+00 2.17279e+00 2.03043e+00
1.00000e-01 1.70104e-01 2.31359e+00 2.95855e-01 1.59980e-01 1.69712e-01 1.80989e+00 1.95551e+00 1.81368e+00
1.10000e-01 2.03132e-01 2.25555e+00 3.03752e-01 1.91087e-01 2.02606e-01 1.63236e+00 1.77773e+00 1.63643e+00
1.20000e-01 2.35483e-01 2.19989e+00 3.12079e-01 2.21576e-01 2.34812e-01 1.48448e+00 1.62959e+00 1.48881e+00
1.30000e-01 2.66829e-01 2.14656e+00 3.20829e-01 2.51138e-01 2.66005e-01 1.35941e+00 1.50424e+00 1.36397e+00
1.40000e-01 2.96975e-01 2.09550e+00 3.29990e-01 2.79590e-01 2.95992e-01 1.25226e+00 1.39679e+00 1.25705e+00
1.50000e-01 3.25816e-01 2.04667e+00 3.39548e-01 3.06836e-01 3.24673e-01 1.15946e+00 1.30367e+00 1.16444e+00
1.60000e-01 3.53315e-01 1.99999e+00 3.49489e-01 3.32838e-01 3.52010e-01 1.07831e+00 1.22219e+00 1.08348e+00
1.70000e-01 3.79471e-01 1.95541e+00 3.59796e-01 3.57596e-01 3.78007e-01 1.00676e+00 1.15030e+00 1.01209e+00
1.80000e-01 4.04312e-01 1.91286e+00 3.70449e-01 3.81137e-01 4.02693e-01 9.43215e-01 1.08639e+00 9.48697e-01
1.90000e-01 4.27884e-01 1.87228e+00 3.81429e-01 4.03501e-01 4.26114e-01 8.86410e-01 1.02921e+00 8.92023e-01
2.00000e-01 4.50240e-01 1.83358e+00 3.92713e-01 4.24739e-01 4.48325e-01 8.35336e-01 9.77754e-01 8.41066e-01
2.10000e-01 4.71440e-01 1.79672e+00 4.04278e-01 4.44906e-01 4.69386e-01 7.89175e-01 9.31194e-01 7.95006e-01
2.20000e-01 4.91545e-01 1.76161e+00 4.16098e-01 4.64059e-01 4.89360e-01 7.47257e-01 8.88867e-01 7.53177e-01
2.30000e-01 5.10618e-01 1.72819e+00 4.28148e-01 4.82256e-01 5.08308e-01 7.09031e-01 8.50221e-01 7.15026e-01
2.40000e-01 5.28718e-01 1.69639e+00 4.40401e-01 4.99553e-01 5.26292e-01 6.74034e-01 8.14795e-01 6.80094e-01
2.50000e-01 5.45903e-01 1.66614e+00 4.52830e-01 5.16003e-01 5.43369e-01 6.41880e-01 7.82203e-01 6.47992e-01
2.60000e-01 5.62228e-01 1.63738e+00 4.65406e-01 5.31657e-01 5.59594e-01 6.12242e-01 7.52118e-01 6.18396e-01
2.70000e-01 5.77747e-01 1.61004e+00 4.78101e-01 5.46564e-01 5.75020e-01 5.84839e-01 7.24262e-01 5.91025e-01
2.80000e-01 5.92508e-01 1.58406e+00 4.90887e-01 5.60770e-01 5.89697e-01 5.59433e-01 6.98396e-01 5.65642e-01
2.90000e-01 6.06557e-01 1.55937e+00 5.03734e-01 5.74316e-01 6.03669e-01 5.35817e-01 6.74313e-01 5.42041e-01
3.00000e-01 6.19939e-01 1.53592e+00 5.16614e-01 5.87244e-01 6.16981e-01 5.13811e-01 6.51836e-01 5.20042e-01
3.10000e-01 6.32692e-01 1.51364e+00 5.29500e-01 5.99591e-01 6.29673e-01 4.93261e-01 6.30809e-01 4.99492e-01
3.20000e-01 6.44856e-01 1.49248e+00 5.42364e-01 6.11391e-01 6.41781e-01 4.74030e-01 6.11096e-01 4.80253e-01
3.30000e-01 6.56464e-01 1.47238e+00 5.55179e-01 6.22676e-01 6.53341e-01 4.55997e-01 5.92578e-01 4.62207e-01
3.40000e-01 6.67550e-01 1.45329e+00 5.67920e-01 6.33477e-01 6.64386e-01 4.39057e-01 5.75149e-01 4.45247e-01
3.50000e-01 6.78144e-01 1.43515e+00 5.80561e-01 6.43821e-01 6.74944e-01 4.23115e-01 5.58716e-01 4.29281e-01
3.60000e-01 6.88275e-01 1.41793e+00 5.93079e-01 6.53736e-01 6.85045e-01 4.08090e-01 5.43197e-01 4.14226e-01
3.70000e-01 6.97968e-01 1.40157e+00 6.05452e-01 6.63244e-01 6.94715e-01 3.93905e-01 5.28516e-01 4.00008e-01
3.80000e-01 7.07249e-01 1.38602e+00 6.17658e-01 6.72369e-01 7.03977e-01 3.80494e-01 5.14607e-01 3.86560e-01
3.90000e-01 7.16141e-01 1.37124e+00 6.29677e-01 6.81131e-01 7.12854e-01 3.67799e-01 5.01412e-01 3.73823e-01
4.00000e-01 7.24664e-01 1.35720e+00 6.41493e-01 6.89551e-01 7.21368e-01 3.55764e-01 4.88877e-01 3.61743e-01
4.10000e-01 7.32839e-01 1.34385e+00 6.53087e-01 6.97647e-01 7.29538e-01 3.44341e-01 4.76953e-01 3.50273e-01
4.20000e-01 7.40685e-01 1.33115e+00 6.64446e-01 7.05435e-01 7.37383e-01 3.33486e-01 4.65597e-01 3.39368e-01
4.30000e-01 7.48218e-01 1.31907e+00 6.75555e-01 7.12931e-01 7.44919e-01 3.23160e-01 4.54769e-01 3.28989e-01
4.40000e-01 7.55455e-01 1.30758e+00 6.86402e-01 7.20152e-01 7.52163e-01 3.13326e-01 4.44434e-01 3.19101e-01
4.50000e-01 7.62412e-01 1.29664e+00 6.96979e-01 7.27110e-01 7.59129e-01 3.03950e-01 4.34557e-01 3.09669e-01
4.60000e-01 7.69103e-01 1.28622e+00 7.07275e-01 7.33818e-01 7.65832e-01 2.95004e-01 4.25110e-01 3.00665e-01
4.70000e-01 7.75541e-01 1.27629e+00 7.17285e-01 7.40289e-01 7.72285e-01 2.86459e-01 4.16065e-01 2.92060e-01
4.80000e-01 7.81738e-01 1.26683e+00 7.27001e-01 7.46535e-01 7.78500e-01 2.78290e-01 4.07397e-01 2.83830e-01
4.90000e-01 7.87707e-01 1.25781e+00 7.36422e-01 7.52566e-01 7.84489e-01 2.70473e-01 3.99083e-01 2.75952e-01
5.00000e-01 7.93458e-01 1.24921e+00 7.45542e-01 7.58392e-01 7.90262e-01 2.62988e-01 3.91102e-01 2.68405e-01
5.10000e-01 7.99002e-01 1.24100e+00 7.54362e-01 7.64023e-01 7.95831e-01 2.55814e-01 3.83433e-01 2.61168e-01
5.20000e-01 8.04348e-01 1.23315e+00 7.62881e-01 7.69467e-01 8.01203e-01 2.48933e-01 3.76059e-01 2.54224e-01
5.30000e-01 8.09506e-01 1.22566e+00 7.71101e-01 7.74734e-01 8.06389e-01 2.42329e-01 3.68964e-01 2.47557e-01
5.40000e-01 8.14485e-01 1.21850e+00 7.79022e-01 7.79831e-01 8.11397e-01 2.35986e-01 3.62131e-01 2.41150e-01
5.50000e-01 8.19293e-01 1.21165e+00 7.86649e-01 7.84765e-01 8.16235e-01 2.29890e-01 3.55547e-01 2.34989e-01
5.60000e-01 8.23936e-01 1.20510e+00 7.93986e-01 7.89544e-01 8.20910e-01 2.24027e-01 3.49198e-01 2.29062e-01
5.70000e-01 8.28424e-01 1.19883e+00 8.01037e-01 7.94175e-01 8.25430e-01 2.18384e-01 3.43072e-01 2.23355e-01
5.80000e-01 8.32762e-01 1.19282e+00 8.07808e-01 7.98663e-01 8.29801e-01 2.12951e-01 3.37157e-01 2.17857e-01
5.90000e-01 8.36957e-01 1.18706e+00 8.14306e-01 8.03014e-01 8.34030e-01 2.07716e-01 3.31442e-01 2.12558e-01
6.00000e-01 8.41014e-01 1.18154e+00 8.20536e-01 8.07235e-01 8.38122e-01 2.02669e-01 3.25918e-01 2.07448e-01
6.10000e-01 8.44941e-01 1.17625e+00 8.26507e-01 8.11331e-01 8.42085e-01 1.97801e-01 3.20575e-01 2.02517e-01
6.20000e-01 8.48743e-01 1.17116e+00 8.32227e-01 8.15306e-01 8.45922e-01 1.93102e-01 3.15404e-01 1.97756e-01
6.30000e-01 8.52423e-01 1.16628e+00 8.37702e-01 8.19166e-01 8.49639e-01 1.88566e-01 3.10398e-01 1.93157e-01
6.40000e-01 8.55989e-01 1.16159e+00 8.42942e-01 8.22914e-01 8.53241e-01 1.84184e-01 3.05548e-01 1.88712e-01
6.50000e-01 8.59443e-01 1.15708e+00 8.47955e-01 8.26556e-01 8.56732e-01 1.79948e-01 3.00847e-01 1.84415e-01
6.60000e-01 8.62792e-01 1.15274e+00 8.52749e-01 8.30096e-01 8.60117e-01 1.75852e-01 2.96289e-01 1.80259e-01
6.70000e-01 8.66038e-01 1.14856e+00 8.57334e-01 8.33536e-01 8.63401e-01 1.71890e-01 2.91867e-01 1.76236e-01
6.80000e-01 8.69186e-01 1.14454e+00 8.61718e-01 8.36882e-01 8.66586e-01 1.68055e-01 2.87575e-01 1.72342e-01
6.90000e-01 8.72240e-01 1.14067e+00 8.65909e-01 8.40136e-01 8.69677e-01 1.64342e-01 2.83407e-01 1.68570e-01
7.00000e-01 8.75203e-01 1.13694e+00 8.69916e-01 8.43303e-01 8.72677e-01 1.60746e-01 2.79358e-01 1.64916e-01
7.10000e-01 8.78079e-01 1.13334e+00 8.73748e-01 8.46384e-01 8.75590e-01 1.57261e-01 2.75424e-01 1.61374e-01
7.20000e-01 8.80871e-01 1.12987e+00 8.77412e-01 8.49384e-01 8.78419e-01 1.53883e-01 2.71598e-01 1.57939e-01
7.30000e-01 8.83583e-01 1.12653e+00 8.80917e-01 8.52305e-01 8.81167e-01 1.50607e-01 2.67878e-01 1.54607e-01
7.40000e-01 8.86216e-01 1.12329e+00 8.84270e-01 8.55149e-01 8.83838e-01 1.47429e-01 2.64258e-01 1.51373e-01
7.50000e-01 8.88775e-01 1.12017e+00 8.87480e-01 8.57921e-01 8.86433e-01 1.44345e-01 2.60734e-01 1.48235e-01
7.60000e-01 8.91261e-01 1.11715e+00 8.90553e-01 8.60621e-01 8.88955e-01 1.41351e-01 2.57304e-01 1.45187e-01
7.70000e-01 8.93678e-01 1.11424e+00 8.93497e-01 8.63253e-01 8.91408e-01 1.38444e-01 2.53962e-01 1.42226e-01
7.80000e-01 8.96028e-01 1.11142e+00 8.96318e-01 8.65819e-01 8.93793e-01 1.35620e-01 2.50706e-01 1.39350e-01
7.90000e-01 8.98313e-01 1.10869e+00 8.99023e-01 8.68321e-01 8.96113e-01 1.32876e-01 2.47533e-01 1.36554e-01
8.00000e-01 9.00535e-01 1.10605e+00 9.01619e-01 8.70761e-01 8.98370e-01 1.30208e-01 2.44438e-01 1.33835e-01
8.10000e-01 9.02697e-01 1.10349e+00 9.04110e-01 8.73141e-01 9.00567e-01 1.27615e-01 2.41421e-01 1.31192e-01
8.20000e-01 9.04801e-01 1.10102e+00 9.06504e-01 8.75463e-01 9.02705e-01 1.25092e-01 2.38477e-01 1.28620e-01
8.30000e-01 9.06849e-01 1.09862e+00 9.08804e-01 8.77729e-01 9.04786e-01 1.22638e-01 2.35603e-01 1.26117e-01
8.40000e-01 9.08842e-01 1.09630e+00 9.11017e-01 8.79941e-01 9.06812e-01 1.20250e-01 2.32799e-01 1.23681e-01
8.50000e-01 9.10782e-01 1.09405e+00 9.13147e-01 8.82101e-01 9.08786e-01 1.17926e-01 2.30060e-01 1.21309e-01
8.60000e-01 9.12672e-01 1.09186e+00 9.15198e-01 8.84210e-01 9.10708e-01 1.15663e-01 2.27385e-01 1.18999e-01
8.70000e-01 9.14512e-01 1.08974e+00 9.17176e-01 8.86269e-01 9.12581e-01 1.13458e-01 2.24771e-01 1.16749e-01
8.80000e-01 9.16305e-01 1.08769e+00 9.19083e-01 8.88281e-01 9.14406e-01 1.11311e-01 2.22217e-01 1.14556e-01
8.90000e-01 9.18052e-01 1.08570e+00 9.20924e-01 8.90247e-01 9.16184e-01 1.09219e-01 2.19720e-01 1.12419e-01
9.00000e-01 9.19755e-01 1.08376e+00 9.22702e-01 8.92167e-01 9.17917e-01 1.07180e-01 2.17279e-01 1.10336e-01
9.10000e-01 9.21414e-01 1.08188e+00 9.24421e-01 8.94044e-01 9.19607e-01 1.05192e-01 2.14891e-01 1.08305e-01
9.20000e-01 9.23031e-01 1.08005e+00 9.26084e-01 8.95879e-01 9.21255e-01 1.03254e-01 2.12555e-01 1.06324e-01
9.30000e-01 9.24608e-01 1.07828e+00 9.27693e-01 8.97673e-01 9.22861e-01 1.01363e-01 2.10270e-01 1.04392e-01
9.40000e-01 9.26146e-01 1.07655e+00 9.29252e-01 8.99427e-01 9.24428e-01 9.95191e-02 2.08033e-01 1.02507e-01
9.50000e-01 9.27646e-01 1.07488e+00 9.30762e-01 9.01142e-01 9.25957e-01 9.77199e-02 2.05843e-01 1.00667e-01
9.60000e-01 9.29109e-01 1.07325e+00 9.32227e-01 9.02820e-01 9.27448e-01 9.59639e-02 2.03699e-01 9.88712e-02
9.70000e-01 9.30536e-01 1.07166e+00 9.33648e-01 9.04461e-01 9.28903e-01 9.42500e-02 2.01599e-01 9.71179e-02
9.80000e-01 9.31929e-01 1.07012e+00 9.35028e-01 9.06067e-01 9.30324e-01 9.25766e-02 1.99542e-01 9.54058e-02
9.90000e-01 9.33288e-01 1.06862e+00 9.36369e-01 9.07638e-01 9.31710e-01 9.09426e-02 1.97526e-01 9.37337e-02
1.00000e+00 9.34614e-01 1.06716e+00 9.37672e-01 9.09176e-01 9.33063e-01 8.93466e-02 1.95551e-01 9.21003e-02
1.01000e+00 9.35909e-01 1.06574e+00 9.38939e-01 9.10681e-01 9.34384e-01 8.77877e-02 1.93615e-01 9.05044e-02
1.02000e+00 9.37173e-01 1.06435e+00 9.40171e-01 9.12155e-01 9.35674e-01 8.62645e-02 1.91716e-01 8.89449e-02
1.03000e+00 9.38407e-01 1.06301e+00 9.41371e-01 9.13597e-01 9.36934e-01 8.47760e-02 1.89855e-01 8.74206e-02
1.04000e+00 9.39612e-01 1.06169e+00 9.42539e-01 9.15010e-01 9.38164e-01 8.33211e-02 1.88030e-01 8.59306e-02
1.05000e+00 9.40789e-01 1.06041e+00 9.43677e-01 9.16394e-01 9.39366e-01 8.18990e-02 1.86239e-01 8.44738e-02
1.06000e+00 9.41939e-01 1.05917e+00 9.44785e-01 9.17749e-01 9.40540e-01 8.05085e-02 1.84482e-01 8.30492e-02
1.07000e+00 9.43062e-01 1.05795e+00 9.45866e-01 9.19076e-01 9.41687e-01 7.91488e-02 1.82758e-01 8.16559e-02
1.08000e+00 9.44160e-01 1.05677e+00 9.46920e-01 9.20377e-01 9.42808e-01 7.78189e-02 1.81066e-01 8.02929e-02
1.09000e+00 9.45232e-01 1.05562e+00 9.47948e-01 9.21651e-01 9.43903e-01 7.65180e-02 1.79404e-01 7.89596e-02
1.10000e+00 9.46280e-01 1.05449e+00 9.48952e-01 9.22900e-01 9.44974e-01 7.52454e-02 1.77773e-01 7.76548e-02
1.11000e+00 9.47305e-01 1.05339e+00 9.49931e-01 9.24124e-01 9.46021e-01 7.40000e-02 1.76172e-01 7.63780e-02
1.12000e+00 9.48306e-01 1.05232e+00 9.50887e-01 9.25323e-01 9.47044e-01 7.27813e-02 1.74599e-01 7.51282e-02
1.13000e+00 9.49285e-01 1.05128e+00 9.51820e-01 9.26499e-01 9.48044e-01 7.15885e-02 1.73054e-01 7.39048e-02
1.14000e+00 9.50242e-01 1.05026e+00 9.52732e-01 9.27652e-01 9.49022e-01 7.04208e-02 1.71536e-01 7.27070e-02
1.15000e+00 9.51177e-01 1.04927e+00 9.53623e-01 9.28783e-01 9.49979e-01 6.92775e-02 1.70044e-01 7.15341e-02
1.16000e+00 9.52092e-01 1.04830e+00 9.54493e-01 9.29891e-01 9.50915e-01 6.81581e-02 1.68578e-01 7.03855e-02
1.17000e+00 9.52987e-01 1.04735e+00 9.55344e-01 9.30978e-01 9.51830e-01 6.70618e-02 1.67137e-01 6.92605e-02
1.18000e+00 9.53863e-01 1.04642e+00 9.56176e-01 9.32044e-01 9.52725e-01 6.59880e-02 1.65721e-01 6.81584e-02
1.19000e+00 9.54719e-01 1.04552e+00 9.56989e-01 9.33090e-01 9.53601e-01 6.49361e-02 1.64328e-01 6.70787e-02
1.20000e+00 9.55556e-01 1.04464e+00 9.57784e-01 9.34116e-01 9.54458e-01 6.39055e-02 1.62959e-01 6.60207e-02
1.21000e+00 9.56376e-01 1.04378e+00 9.58562e-01 9.35123e-01 9.55296e-01 6.28958e-02 1.61612e-01 6.49839e-02
1.22000e+00 9.57178e-01 1.04294e+00 9.59322e-01 9.36111e-01 9.56117e-01 6.19063e-02 1.60288e-01 6.39678e-02
1.23000e+00 9.57963e-01 1.04211e+00 9.60067e-01 9.37080e-01 9.56920e-01 6.09365e-02 1.58984e-01 6.29718e-02
1.24000e+00 9.58731e-01 1.04131e+00 9.60795e-01 9.38031e-01 9.57706e-01 5.99859e-02 1.57702e-01 6.19954e-02
1.25000e+00 9.59483e-01 1.04053e+00 9.61507e-01 9.38964e-01 9.58475e-01 5.90540e-02 1.56441e-01 6.10382e-02
1.26000e+00 9.60219e-01 1.03976e+00 9.62205e-01 9.39881e-01 9.59228e-01 5.81404e-02 1.55199e-01 6.00995e-02
1.27000e+00 9.60939e-01 1.03901e+00 9.62887e-01 9.40780e-01 9.59965e-01 5.72445e-02 1.53977e-01 5.91790e-02
1.28000e+00 9.61644e-01 1.03828e+00 9.63556e-01 9.41663e-01 9.60687e-01 5.63660e-02 1.52774e-01 5.82762e-02
1.29000e+00 9.62335e-01 1.03756e+00 9.64210e-01 9.42530e-01 9.61394e-01 5.55045e-02 1.51590e-01 5.73907e-02
1.30000e+00 9.63011e-01 1.03686e+00 9.64850e-01 9.43382e-01 9.62087e-01 5.46594e-02 1.50424e-01 5.65221e-02
1.31000e+00 9.63673e-01 1.03617e+00 9.65478e-01 9.44218e-01 9.62765e-01 5.38304e-02 1.49275e-01 5.56699e-02
1.32000e+00 9.64322e-01 1.03550e+00 9.66092e-01 9.45039e-01 9.63429e-01 5.30171e-02 1.48145e-01 5.48337e-02
1.33000e+00 9.64957e-01 1.03485e+00 9.66693e-01 9.45845e-01 9.64079e-01 5.22191e-02 1.47031e-01 5.40132e-02
1.34000e+00 9.65579e-01 1.03421e+00 9.67283e-01 9.46637e-01 9.64716e-01 5.14361e-02 1.45933e-01 5.32080e-02
1.35000e+00 9.66188e-01 1.03358e+00 9.67860e-01 9.47415e-01 9.65341e-01 5.06676e-02 1.44852e-01 5.24177e-02
1.36000e+00 9.66786e-01 1.03297e+00 9.68425e-01 9.48179e-01 9.65952e-01 4.99134e-02 1.43787e-01 5.16420e-02
1.37000e+00 9.67371e-01 1.03237e+00 9.68979e-01 9.48930e-01 9.66552e-01 4.91732e-02 1.42738e-01 5.08805e-02
1.38000e+00 9.67944e-01 1.03178e+00 9.69522e-01 9.49668e-01 9.67139e-01 4.84465e-02 1.41703e-01 5.01329e-02
1.39000e+00 9.68505e-01 1.03120e+00 9.70054e-01 9.50393e-01 9.67714e-01 4.77331e-02 1.40684e-01 4.93988e-02
1.40000e+00 9.69056e-01 1.03064e+00 9.70575e-01 9.51105e-01 9.68278e-01 4.70327e-02 1.39679e-01 4.86781e-02
1.41000e+00 9.69595e-01 1.03009e+00 9.71086e-01 9.51805e-01 9.68831e-01 4.63449e-02 1.38688e-01 4.79703e-02
1.42000e+00 9.70124e-01 1.02955e+00 9.71587e-01 9.52493e-01 9.69373e-01 4.56695e-02 1.37712e-01 4.72752e-02
1.43000e+00 9.70642e-01 1.02902e+00 9.72078e-01 9.53170e-01 9.69904e-01 4.50062e-02 1.36749e-01 4.65925e-02
1.44000e+00 9.71150e-01 1.02850e+00 9.72559e-01 9.53835e-01 9.70424e-01 4.43548e-02 1.35799e-01 4.59218e-02
1.45000e+00 9.71648e-01 1.02800e+00 9.73030e-01 9.54488e-01 9.70935e-01 4.37149e-02 1.34863e-01 4.52630e-02
1.46000e+00 9.72136e-01 1.02750e+00 9.73493e-01 9.55131e-01 9.71435e-01 4.30863e-02 1.33939e-01 4.46158e-02
1.47000e+00 9.72615e-01 1.02701e+00 9.73946e-01 9.55762e-01 9.71926e-01 4.24687e-02 1.33028e-01 4.39799e-02
1.48000e+00 9.73084e-01 1.02654e+00 9.74391e-01 9.56383e-01 9.72407e-01 4.18620e-02 1.32129e-01 4.33551e-02
1.49000e+00 9.73545e-01 1.02607e+00 9.74827e-01 9.56994e-01 9.72878e-01 4.12658e-02 1.31242e-01 4.27411e-02
1.50000e+00 9.73996e-01 1.02561e+00 9.75254e-01 9.57594e-01 9.73341e-01 4.06800e-02 1.30367e-01 4.21377e-02
1.51000e+00 9.74438e-01 1.02517e+00 9.75673e-01 9.58185e-01 9.73795e-01 4.01043e-02 1.29504e-01 4.15446e-02
1.52000e+00 9.74872e-01 1.02473e+00 9.76084e-01 9.58766e-01 9.74240e-01 3.95385e-02 1.28652e-01 4.09617e-02
1.53000e+00 9.75298e-01 1.02430e+00 9.76488e-01 9.59337e-01 9.74676e-01 3.89823e-02 1.27811e-01 4.03887e-02
1.54000e+00 9.75716e-01 1.02388e+00 9.76883e-01 9.59899e-01 9.75104e-01 3.84357e-02 1.26981e-01 3.98255e-02
1.55000e+00 9.76125e-01 1.02346e+00 9.77271e-01 9.60451e-01 9.75524e-01 3.78983e-02 1.26162e-01 3.92717e-02
1.56000e+00 9.76527e-01 1.02306e+00 9.77652e-01 9.60995e-01 9.75936e-01 3.73701e-02 1.25353e-01 3.87273e-02
1.57000e+00 9.76921e-01 1.02266e+00 9.78026e-01 9.61530e-01 9.76341e-01 3.68507e-02 1.24555e-01 3.81920e-02
1.58000e+00 9.77308e-01 1.02227e+00 9.78392e-01 9.62056e-01 9.76737e-01 3.63400e-02 1.23766e-01 3.76656e-02
1.59000e+00 9.77688e-01 1.02189e+00 9.78752e-01 9.62574e-01 9.77126e-01 3.58378e-02 1.22988e-01 3.71479e-02
1.60000e+00 9.78060e-01 1.02152e+00 9.79104e-01 9.63083e-01 9.77508e-01 3.53440e-02 1.22219e-01 3.66389e-02
1.61000e+00 9.78426e-01 1.02115e+00 9.79451e-01 9.63584e-01 9.77883e-01 3.48584e-02 1.21460e-01 3.61382e-02
1.62000e+00 9.78784e-01 1.02079e+00 9.79790e-01 9.64078e-01 9.78251e-01 3.43808e-02 1.20710e-01 3.56457e-02
1.63000e+00 9.79136e-01 1.02044e+00 9.80124e-01 9.64563e-01 9.78612e-01 3.39110e-02 1.19970e-01 3.51613e-02
1.64000e+00 9.79481e-01 1.02009e+00 9.80451e-01 9.65041e-01 9.78966e-01 3.34489e-02 1.19238e-01 3.46847e-02
1.65000e+00 9.79820e-01 1.01975e+00 9.80772e-01 9.65511e-01 9.79314e-01 3.29944e-02 1.18516e-01 3.42159e-02
1.66000e+00 9.80153e-01 1.01942e+00 9.81088e-01 9.65974e-01 9.79655e-01 3.25472e-02 1.17802e-01 3.37547e-02
1.67000e+00 9.80480e-01 1.01910e+00 9.81397e-01 9.66429e-01 9.79990e-01 3.21073e-02 1.17096e-01 3.33009e-02
1.68000e+00 9.80800e-01 1.01878e+00 9.81701e-01 9.66878e-01 9.80319e-01 3.16745e-02 1.16399e-01 3.28543e-02
1.69000e+00 9.81115e-01 1.01846e+00 9.81999e-01 9.67319e-01 9.80641e-01 3.12486e-02 1.15711e-01 3.24149e-02
1.70000e+00 9.81424e-01 1.01815e+00 9.82292e-01 9.67754e-01 9.80958e-01 3.08295e-02 1.15030e-01 3.19826e-02
1.71000e+00 9.81727e-01 1.01785e+00 9.82579e-01 9.68181e-01 9.81269e-01 3.04171e-02 1.14357e-01 3.15570e-02
1.72000e+00 9.82025e-01 1.01756e+00 9.82862e-01 9.68603e-01 9.81575e-01 3.00113e-02 1.13692e-01 3.11382e-02
1.73000e+00 9.82317e-01 1.01726e+00 9.83139e-01 9.69017e-01 9.81875e-01 2.96119e-02 1.13035e-01 3.07260e-02
1.74000e+00 9.82604e-01 1.01698e+00 9.83411e-01 9.69426e-01 9.82169e-01 2.92188e-02 1.12386e-01 3.03203e-02
1.75000e+00 9.82886e-01 1.01670e+00 9.83678e-01 9.69828e-01 9.82459e-01 2.88318e-02 1.11743e-01 2.99209e-02
1.76000e+00 9.83163e-01 1.01642e+00 9.83941e-01 9.70224e-01 9.82743e-01 2.84510e-02 1.11108e-01 2.95277e-02
1.77000e+00 9.83435e-01 1.01615e+00 9.84199e-01 9.70614e-01 9.83022e-01 2.80760e-02 1.10481e-01 2.91406e-02
1.78000e+00 9.83702e-01 1.01589e+00 9.84452e-01 9.70998e-01 9.83296e-01 2.77069e-02 1.09860e-01 2.87596e-02
1.79000e+00 9.83964e-01 1.01563e+00 9.84701e-01 9.71376e-01 9.83565e-01 2.73436e-02 1.09246e-01 2.83844e-02
1.80000e+00 9.84222e-01 1.01537e+00 9.84945e-01 9.71749e-01 9.83829e-01 2.69858e-02 1.08639e-01 2.80149e-02
1.81000e+00 9.84475e-01 1.01512e+00 9.85185e-01 9.72116e-01 9.84089e-01 2.66336e-02 1.08039e-01 2.76512e-02
