# Zach Johnson Dec/11/2023 CHNC for TCCW Paper
# Ti=1.000e+02[eV], Tie=1.021e+02[eV] , Te_c=1.021e+02[eV], n_i=5.980e+23[1/cc], n_e=5.980e+23[1/cc]
# ri=1.391, Zbar=1.000, Rc=0.000[AU], Γii=1.956e-01, Γei=-1.915e-01 , Γee=1.915e-01, κ=7.517e-01
r/ri        g_ii        g_ei        g_ee        OCP:g_ii    Yuk:g_ii    βu_ii_eff   βu_OCP      βu_Yuk    
1.00000e-02 0.00000e+00 2.92658e+00 2.43791e-01 0.00000e+00 0.00000e+00 1.94171e+01 1.95561e+01 1.94094e+01
2.00000e-02 6.77304e-05 2.80954e+00 2.49467e-01 6.40204e-05 6.81904e-05 9.63907e+00 9.77804e+00 9.63189e+00
3.00000e-02 1.76416e-03 2.70205e+00 2.55474e-01 1.66906e-03 1.77721e-03 6.37977e+00 6.51869e+00 6.37309e+00
4.00000e-02 9.00034e-03 2.60314e+00 2.61827e-01 8.51597e-03 9.06282e-03 4.75016e+00 4.88902e+00 4.74396e+00
5.00000e-02 2.39254e-02 2.51195e+00 2.68539e-01 2.26398e-02 2.40806e-02 3.77245e+00 3.91121e+00 3.76670e+00
6.00000e-02 4.59088e-02 2.42772e+00 2.75621e-01 4.34463e-02 4.61865e-02 3.12068e+00 3.25935e+00 3.11537e+00
7.00000e-02 7.31198e-02 2.34980e+00 2.83079e-01 6.92059e-02 7.35316e-02 2.65518e+00 2.79372e+00 2.65029e+00
8.00000e-02 1.03659e-01 2.27758e+00 2.90920e-01 9.81237e-02 1.04202e-01 2.30611e+00 2.44451e+00 2.30161e+00
9.00000e-02 1.35978e-01 2.21055e+00 2.99145e-01 1.28736e-01 1.36638e-01 2.03465e+00 2.17290e+00 2.03053e+00
1.00000e-01 1.68937e-01 2.14824e+00 3.07753e-01 1.59966e-01 1.69698e-01 1.81753e+00 1.95561e+00 1.81377e+00
1.10000e-01 2.01751e-01 2.09023e+00 3.16742e-01 1.91071e-01 2.02590e-01 1.63994e+00 1.77782e+00 1.63651e+00
1.20000e-01 2.33899e-01 2.03615e+00 3.26107e-01 2.21559e-01 2.34796e-01 1.49199e+00 1.62967e+00 1.48888e+00
1.30000e-01 2.65053e-01 1.98566e+00 3.35837e-01 2.51121e-01 2.65988e-01 1.36684e+00 1.50431e+00 1.36404e+00
1.40000e-01 2.95020e-01 1.93847e+00 3.45923e-01 2.79573e-01 2.95974e-01 1.25962e+00 1.39686e+00 1.25711e+00
1.50000e-01 3.23697e-01 1.89430e+00 3.56351e-01 3.06818e-01 3.24655e-01 1.16673e+00 1.30374e+00 1.16450e+00
1.60000e-01 3.51045e-01 1.85291e+00 3.67105e-01 3.32820e-01 3.51993e-01 1.08550e+00 1.22225e+00 1.08353e+00
1.70000e-01 3.77065e-01 1.81408e+00 3.78169e-01 3.57578e-01 3.77990e-01 1.01387e+00 1.15036e+00 1.01214e+00
1.80000e-01 4.01785e-01 1.77762e+00 3.89521e-01 3.81119e-01 4.02676e-01 9.50234e-01 1.08645e+00 9.48742e-01
1.90000e-01 4.25248e-01 1.74333e+00 4.01141e-01 4.03483e-01 4.26097e-01 8.93337e-01 1.02927e+00 8.92066e-01
2.00000e-01 4.47508e-01 1.71106e+00 4.13005e-01 4.24721e-01 4.48308e-01 8.42168e-01 9.77804e-01 8.41105e-01
2.10000e-01 4.68625e-01 1.68067e+00 4.25089e-01 4.44888e-01 4.69370e-01 7.95909e-01 9.31242e-01 7.95044e-01
2.20000e-01 4.88658e-01 1.65200e+00 4.37369e-01 4.64042e-01 4.89344e-01 7.53891e-01 8.88912e-01 7.53213e-01
2.30000e-01 5.07669e-01 1.62494e+00 4.49816e-01 4.82239e-01 5.08293e-01 7.15562e-01 8.50264e-01 7.15060e-01
2.40000e-01 5.25718e-01 1.59938e+00 4.62405e-01 4.99536e-01 5.26276e-01 6.80462e-01 8.14836e-01 6.80125e-01
2.50000e-01 5.42862e-01 1.57521e+00 4.75108e-01 5.15986e-01 5.43353e-01 6.48202e-01 7.82243e-01 6.48022e-01
2.60000e-01 5.59155e-01 1.55234e+00 4.87896e-01 5.31641e-01 5.59579e-01 6.18457e-01 7.52157e-01 6.18424e-01
2.70000e-01 5.74650e-01 1.53067e+00 5.00742e-01 5.46548e-01 5.75006e-01 5.90946e-01 7.24299e-01 5.91053e-01
2.80000e-01 5.89395e-01 1.51014e+00 5.13618e-01 5.60754e-01 5.89683e-01 5.65431e-01 6.98431e-01 5.65668e-01
2.90000e-01 6.03435e-01 1.49066e+00 5.26497e-01 5.74301e-01 6.03656e-01 5.41705e-01 6.74347e-01 5.42066e-01
3.00000e-01 6.16814e-01 1.47217e+00 5.39351e-01 5.87230e-01 6.16968e-01 5.19590e-01 6.51869e-01 5.20066e-01
3.10000e-01 6.29571e-01 1.45460e+00 5.52154e-01 5.99577e-01 6.29660e-01 4.98930e-01 6.30841e-01 4.99514e-01
3.20000e-01 6.41743e-01 1.43790e+00 5.64881e-01 6.11377e-01 6.41769e-01 4.79588e-01 6.11127e-01 4.80275e-01
3.30000e-01 6.53365e-01 1.42201e+00 5.77508e-01 6.22662e-01 6.53329e-01 4.61446e-01 5.92608e-01 4.62227e-01
3.40000e-01 6.64470e-01 1.40689e+00 5.90011e-01 6.33463e-01 6.64374e-01 4.44396e-01 5.75179e-01 4.45267e-01
3.50000e-01 6.75087e-01 1.39248e+00 6.02368e-01 6.43808e-01 6.74933e-01 4.28345e-01 5.58745e-01 4.29301e-01
3.60000e-01 6.85244e-01 1.37875e+00 6.14559e-01 6.53723e-01 6.85034e-01 4.13211e-01 5.43224e-01 4.14245e-01
3.70000e-01 6.94968e-01 1.36566e+00 6.26563e-01 6.63231e-01 6.94704e-01 3.98919e-01 5.28543e-01 4.00025e-01
3.80000e-01 7.04282e-01 1.35316e+00 6.38363e-01 6.72357e-01 7.03966e-01 3.85401e-01 5.14634e-01 3.86577e-01
3.90000e-01 7.13209e-01 1.34123e+00 6.49943e-01 6.81119e-01 7.12844e-01 3.72600e-01 5.01438e-01 3.73839e-01
4.00000e-01 7.21770e-01 1.32983e+00 6.61288e-01 6.89540e-01 7.21358e-01 3.60460e-01 4.88902e-01 3.61759e-01
4.10000e-01 7.29986e-01 1.31893e+00 6.72384e-01 6.97635e-01 7.29528e-01 3.48934e-01 4.76977e-01 3.50288e-01
4.20000e-01 7.37873e-01 1.30851e+00 6.83220e-01 7.05424e-01 7.37373e-01 3.37978e-01 4.65621e-01 3.39383e-01
4.30000e-01 7.45450e-01 1.29854e+00 6.93787e-01 7.12921e-01 7.44910e-01 3.27551e-01 4.54792e-01 3.29003e-01
4.40000e-01 7.52733e-01 1.28899e+00 7.04074e-01 7.20141e-01 7.52154e-01 3.17618e-01 4.44456e-01 3.19114e-01
4.50000e-01 7.59736e-01 1.27984e+00 7.14076e-01 7.27099e-01 7.59120e-01 3.08145e-01 4.34579e-01 3.09682e-01
4.60000e-01 7.66474e-01 1.27108e+00 7.23786e-01 7.33808e-01 7.65824e-01 2.99103e-01 4.25132e-01 3.00677e-01
4.70000e-01 7.72959e-01 1.26267e+00 7.33201e-01 7.40279e-01 7.72277e-01 2.90463e-01 4.16087e-01 2.92073e-01
4.80000e-01 7.79205e-01 1.25461e+00 7.42318e-01 7.46525e-01 7.78492e-01 2.82201e-01 4.07418e-01 2.83842e-01
4.90000e-01 7.85223e-01 1.24688e+00 7.51136e-01 7.52556e-01 7.84481e-01 2.74294e-01 3.99104e-01 2.75964e-01
5.00000e-01 7.91023e-01 1.23945e+00 7.59654e-01 7.58383e-01 7.90255e-01 2.66720e-01 3.91121e-01 2.68416e-01
5.10000e-01 7.96616e-01 1.23231e+00 7.67873e-01 7.64014e-01 7.95823e-01 2.59458e-01 3.83452e-01 2.61179e-01
5.20000e-01 8.02012e-01 1.22545e+00 7.75795e-01 7.69458e-01 8.01196e-01 2.52493e-01 3.76078e-01 2.54235e-01
5.30000e-01 8.07220e-01 1.21886e+00 7.83424e-01 7.74725e-01 8.06382e-01 2.45805e-01 3.68983e-01 2.47567e-01
5.40000e-01 8.12248e-01 1.21252e+00 7.90762e-01 7.79822e-01 8.11390e-01 2.39380e-01 3.62150e-01 2.41160e-01
5.50000e-01 8.17104e-01 1.20642e+00 7.97816e-01 7.84757e-01 8.16228e-01 2.33204e-01 3.55565e-01 2.34999e-01
5.60000e-01 8.21796e-01 1.20055e+00 8.04591e-01 7.89536e-01 8.20904e-01 2.27262e-01 3.49216e-01 2.29071e-01
5.70000e-01 8.26332e-01 1.19490e+00 8.11092e-01 7.94167e-01 8.25424e-01 2.21543e-01 3.43089e-01 2.23364e-01
5.80000e-01 8.30718e-01 1.18945e+00 8.17326e-01 7.98655e-01 8.29795e-01 2.16034e-01 3.37174e-01 2.17866e-01
5.90000e-01 8.34959e-01 1.18420e+00 8.23301e-01 8.03007e-01 8.34024e-01 2.10726e-01 3.31459e-01 2.12567e-01
6.00000e-01 8.39064e-01 1.17914e+00 8.29024e-01 8.07228e-01 8.38117e-01 2.05608e-01 3.25935e-01 2.07456e-01
6.10000e-01 8.43037e-01 1.17426e+00 8.34503e-01 8.11324e-01 8.42079e-01 2.00670e-01 3.20591e-01 2.02525e-01
6.20000e-01 8.46883e-01 1.16956e+00 8.39747e-01 8.15299e-01 8.45916e-01 1.95904e-01 3.15421e-01 1.97763e-01
6.30000e-01 8.50609e-01 1.16501e+00 8.44764e-01 8.19159e-01 8.49634e-01 1.91301e-01 3.10414e-01 1.93164e-01
6.40000e-01 8.54218e-01 1.16063e+00 8.49561e-01 8.22908e-01 8.53236e-01 1.86854e-01 3.05564e-01 1.88720e-01
6.50000e-01 8.57716e-01 1.15640e+00 8.54149e-01 8.26550e-01 8.56727e-01 1.82555e-01 3.00863e-01 1.84423e-01
6.60000e-01 8.61106e-01 1.15230e+00 8.58536e-01 8.30089e-01 8.60113e-01 1.78398e-01 2.96304e-01 1.80266e-01
6.70000e-01 8.64394e-01 1.14835e+00 8.62729e-01 8.33530e-01 8.63396e-01 1.74376e-01 2.91882e-01 1.76243e-01
6.80000e-01 8.67583e-01 1.14453e+00 8.66739e-01 8.36876e-01 8.66582e-01 1.70483e-01 2.87589e-01 1.72349e-01
6.90000e-01 8.70677e-01 1.14084e+00 8.70572e-01 8.40130e-01 8.69673e-01 1.66713e-01 2.83421e-01 1.68577e-01
7.00000e-01 8.73680e-01 1.13727e+00 8.74238e-01 8.43297e-01 8.72673e-01 1.63061e-01 2.79372e-01 1.64922e-01
7.10000e-01 8.76594e-01 1.13381e+00 8.77745e-01 8.46379e-01 8.75586e-01 1.59522e-01 2.75438e-01 1.61380e-01
7.20000e-01 8.79424e-01 1.13046e+00 8.81100e-01 8.49378e-01 8.78415e-01 1.56091e-01 2.71612e-01 1.57945e-01
7.30000e-01 8.82172e-01 1.12723e+00 8.84312e-01 8.52299e-01 8.81164e-01 1.52764e-01 2.67891e-01 1.54612e-01
7.40000e-01 8.84842e-01 1.12409e+00 8.87387e-01 8.55144e-01 8.83834e-01 1.49536e-01 2.64271e-01 1.51379e-01
7.50000e-01 8.87435e-01 1.12105e+00 8.90333e-01 8.57916e-01 8.86429e-01 1.46404e-01 2.60748e-01 1.48240e-01
7.60000e-01 8.89956e-01 1.11811e+00 8.93156e-01 8.60616e-01 8.88952e-01 1.43363e-01 2.57317e-01 1.45192e-01
7.70000e-01 8.92407e-01 1.11526e+00 8.95864e-01 8.63248e-01 8.91404e-01 1.40409e-01 2.53975e-01 1.42232e-01
7.80000e-01 8.94789e-01 1.11250e+00 8.98462e-01 8.65814e-01 8.93790e-01 1.37540e-01 2.50719e-01 1.39355e-01
7.90000e-01 8.97106e-01 1.10982e+00 9.00957e-01 8.68316e-01 8.96110e-01 1.34752e-01 2.47545e-01 1.36559e-01
8.00000e-01 8.99360e-01 1.10722e+00 9.03355e-01 8.70756e-01 8.98367e-01 1.32042e-01 2.44451e-01 1.33840e-01
8.10000e-01 9.01552e-01 1.10470e+00 9.05660e-01 8.73136e-01 9.00564e-01 1.29407e-01 2.41433e-01 1.31196e-01
8.20000e-01 9.03686e-01 1.10225e+00 9.07878e-01 8.75459e-01 9.02702e-01 1.26844e-01 2.38489e-01 1.28624e-01
8.30000e-01 9.05763e-01 1.09987e+00 9.10014e-01 8.77725e-01 9.04783e-01 1.24351e-01 2.35615e-01 1.26121e-01
8.40000e-01 9.07784e-01 1.09757e+00 9.12072e-01 8.79937e-01 9.06810e-01 1.21924e-01 2.32810e-01 1.23685e-01
8.50000e-01 9.09752e-01 1.09533e+00 9.14058e-01 8.82097e-01 9.08783e-01 1.19562e-01 2.30071e-01 1.21313e-01
8.60000e-01 9.11669e-01 1.09316e+00 9.15974e-01 8.84206e-01 9.10706e-01 1.17263e-01 2.27396e-01 1.19003e-01
8.70000e-01 9.13536e-01 1.09104e+00 9.17825e-01 8.86265e-01 9.12578e-01 1.15023e-01 2.24782e-01 1.16753e-01
8.80000e-01 9.15354e-01 1.08899e+00 9.19614e-01 8.88277e-01 9.14403e-01 1.12841e-01 2.22228e-01 1.14560e-01
8.90000e-01 9.17126e-01 1.08700e+00 9.21344e-01 8.90243e-01 9.16181e-01 1.10715e-01 2.19731e-01 1.12423e-01
9.00000e-01 9.18853e-01 1.08506e+00 9.23020e-01 8.92163e-01 9.17915e-01 1.08643e-01 2.17290e-01 1.10340e-01
9.10000e-01 9.20536e-01 1.08318e+00 9.24643e-01 8.94040e-01 9.19605e-01 1.06623e-01 2.14902e-01 1.08309e-01
9.20000e-01 9.22177e-01 1.08134e+00 9.26216e-01 8.95875e-01 9.21252e-01 1.04654e-01 2.12566e-01 1.06328e-01
9.30000e-01 9.23776e-01 1.07956e+00 9.27743e-01 8.97669e-01 9.22859e-01 1.02733e-01 2.10280e-01 1.04396e-01
9.40000e-01 9.25336e-01 1.07783e+00 9.29225e-01 8.99423e-01 9.24426e-01 1.00860e-01 2.08043e-01 1.02510e-01
9.50000e-01 9.26857e-01 1.07614e+00 9.30665e-01 9.01138e-01 9.25955e-01 9.90315e-02 2.05853e-01 1.00670e-01
9.60000e-01 9.28341e-01 1.07450e+00 9.32064e-01 9.02816e-01 9.27446e-01 9.72474e-02 2.03709e-01 9.88745e-02
9.70000e-01 9.29789e-01 1.07290e+00 9.33424e-01 9.04458e-01 9.28902e-01 9.55060e-02 2.01609e-01 9.71211e-02
9.80000e-01 9.31201e-01 1.07134e+00 9.34748e-01 9.06063e-01 9.30322e-01 9.38060e-02 1.99552e-01 9.54090e-02
9.90000e-01 9.32579e-01 1.06983e+00 9.36037e-01 9.07635e-01 9.31708e-01 9.21459e-02 1.97536e-01 9.37368e-02
1.00000e+00 9.33924e-01 1.06835e+00 9.37293e-01 9.09173e-01 9.33061e-01 9.05245e-02 1.95561e-01 9.21033e-02
1.01000e+00 9.35237e-01 1.06691e+00 9.38516e-01 9.10678e-01 9.34382e-01 8.89408e-02 1.93625e-01 9.05073e-02
1.02000e+00 9.36519e-01 1.06551e+00 9.39709e-01 9.12152e-01 9.35672e-01 8.73934e-02 1.91726e-01 8.89477e-02
1.03000e+00 9.37771e-01 1.06415e+00 9.40872e-01 9.13594e-01 9.36932e-01 8.58813e-02 1.89865e-01 8.74234e-02
1.04000e+00 9.38993e-01 1.06282e+00 9.42007e-01 9.15007e-01 9.38162e-01 8.44035e-02 1.88039e-01 8.59333e-02
1.05000e+00 9.40187e-01 1.06152e+00 9.43115e-01 9.16391e-01 9.39364e-01 8.29589e-02 1.86248e-01 8.44764e-02
1.06000e+00 9.41353e-01 1.06026e+00 9.44197e-01 9.17746e-01 9.40538e-01 8.15465e-02 1.84491e-01 8.30518e-02
1.07000e+00 9.42491e-01 1.05902e+00 9.45253e-01 9.19074e-01 9.41686e-01 8.01654e-02 1.82767e-01 8.16584e-02
1.08000e+00 9.43604e-01 1.05782e+00 9.46285e-01 9.20374e-01 9.42807e-01 7.88147e-02 1.81075e-01 8.02955e-02
1.09000e+00 9.44691e-01 1.05665e+00 9.47294e-01 9.21649e-01 9.43902e-01 7.74935e-02 1.79414e-01 7.89620e-02
1.10000e+00 9.45754e-01 1.05551e+00 9.48279e-01 9.22898e-01 9.44973e-01 7.62009e-02 1.77782e-01 7.76572e-02
1.11000e+00 9.46792e-01 1.05439e+00 9.49243e-01 9.24121e-01 9.46019e-01 7.49362e-02 1.76181e-01 7.63803e-02
1.12000e+00 9.47807e-01 1.05330e+00 9.50185e-01 9.25321e-01 9.47043e-01 7.36986e-02 1.74608e-01 7.51305e-02
1.13000e+00 9.48799e-01 1.05224e+00 9.51107e-01 9.26497e-01 9.48043e-01 7.24872e-02 1.73063e-01 7.39071e-02
1.14000e+00 9.49769e-01 1.05120e+00 9.52008e-01 9.27650e-01 9.49021e-01 7.13015e-02 1.71545e-01 7.27092e-02
1.15000e+00 9.50717e-01 1.05019e+00 9.52891e-01 9.28781e-01 9.49978e-01 7.01406e-02 1.70053e-01 7.15363e-02
1.16000e+00 9.51645e-01 1.04920e+00 9.53754e-01 9.29889e-01 9.50914e-01 6.90039e-02 1.68587e-01 7.03876e-02
1.17000e+00 9.52552e-01 1.04824e+00 9.54599e-01 9.30976e-01 9.51829e-01 6.78907e-02 1.67146e-01 6.92625e-02
1.18000e+00 9.53439e-01 1.04730e+00 9.55426e-01 9.32042e-01 9.52724e-01 6.68005e-02 1.65729e-01 6.81604e-02
1.19000e+00 9.54306e-01 1.04638e+00 9.56235e-01 9.33088e-01 9.53600e-01 6.57325e-02 1.64337e-01 6.70806e-02
1.20000e+00 9.55155e-01 1.04548e+00 9.57028e-01 9.34114e-01 9.54457e-01 6.46863e-02 1.62967e-01 6.60226e-02
1.21000e+00 9.55985e-01 1.04460e+00 9.57804e-01 9.35121e-01 9.55295e-01 6.36612e-02 1.61620e-01 6.49858e-02
1.22000e+00 9.56798e-01 1.04374e+00 9.58564e-01 9.36109e-01 9.56116e-01 6.26567e-02 1.60296e-01 6.39697e-02
1.23000e+00 9.57593e-01 1.04291e+00 9.59309e-01 9.37078e-01 9.56919e-01 6.16722e-02 1.58992e-01 6.29736e-02
1.24000e+00 9.58371e-01 1.04209e+00 9.60038e-01 9.38029e-01 9.57705e-01 6.07073e-02 1.57710e-01 6.19972e-02
1.25000e+00 9.59133e-01 1.04129e+00 9.60752e-01 9.38963e-01 9.58474e-01 5.97614e-02 1.56449e-01 6.10399e-02
1.26000e+00 9.59878e-01 1.04050e+00 9.61452e-01 9.39879e-01 9.59227e-01 5.88341e-02 1.55207e-01 6.01012e-02
1.27000e+00 9.60608e-01 1.03974e+00 9.62138e-01 9.40779e-01 9.59965e-01 5.79249e-02 1.53985e-01 5.91807e-02
1.28000e+00 9.61322e-01 1.03899e+00 9.62810e-01 9.41662e-01 9.60687e-01 5.70333e-02 1.52782e-01 5.82778e-02
1.29000e+00 9.62021e-01 1.03826e+00 9.63468e-01 9.42529e-01 9.61394e-01 5.61589e-02 1.51597e-01 5.73923e-02
1.30000e+00 9.62706e-01 1.03755e+00 9.64113e-01 9.43380e-01 9.62086e-01 5.53013e-02 1.50431e-01 5.65236e-02
1.31000e+00 9.63376e-01 1.03685e+00 9.64745e-01 9.44216e-01 9.62764e-01 5.44600e-02 1.49283e-01 5.56714e-02
1.32000e+00 9.64033e-01 1.03616e+00 9.65365e-01 9.45037e-01 9.63428e-01 5.36347e-02 1.48152e-01 5.48352e-02
1.33000e+00 9.64676e-01 1.03549e+00 9.65972e-01 9.45844e-01 9.64079e-01 5.28250e-02 1.47038e-01 5.40146e-02
1.34000e+00 9.65306e-01 1.03484e+00 9.66567e-01 9.46636e-01 9.64716e-01 5.20305e-02 1.45941e-01 5.32094e-02
1.35000e+00 9.65923e-01 1.03420e+00 9.67151e-01 9.47414e-01 9.65340e-01 5.12508e-02 1.44860e-01 5.24191e-02
1.36000e+00 9.66527e-01 1.03357e+00 9.67723e-01 9.48178e-01 9.65952e-01 5.04856e-02 1.43795e-01 5.16433e-02
1.37000e+00 9.67119e-01 1.03296e+00 9.68284e-01 9.48929e-01 9.66551e-01 4.97346e-02 1.42745e-01 5.08818e-02
1.38000e+00 9.67699e-01 1.03236e+00 9.68834e-01 9.49667e-01 9.67138e-01 4.89974e-02 1.41711e-01 5.01342e-02
1.39000e+00 9.68268e-01 1.03177e+00 9.69373e-01 9.50392e-01 9.67714e-01 4.82737e-02 1.40691e-01 4.94001e-02
1.40000e+00 9.68825e-01 1.03120e+00 9.69902e-01 9.51104e-01 9.68278e-01 4.75632e-02 1.39686e-01 4.86793e-02
1.41000e+00 9.69371e-01 1.03063e+00 9.70420e-01 9.51804e-01 9.68830e-01 4.68655e-02 1.38696e-01 4.79715e-02
1.42000e+00 9.69906e-01 1.03008e+00 9.70929e-01 9.52492e-01 9.69372e-01 4.61805e-02 1.37719e-01 4.72764e-02
1.43000e+00 9.70430e-01 1.02954e+00 9.71427e-01 9.53169e-01 9.69903e-01 4.55077e-02 1.36756e-01 4.65936e-02
1.44000e+00 9.70944e-01 1.02901e+00 9.71916e-01 9.53833e-01 9.70424e-01 4.48469e-02 1.35806e-01 4.59230e-02
1.45000e+00 9.71448e-01 1.02850e+00 9.72396e-01 9.54487e-01 9.70934e-01 4.41980e-02 1.34869e-01 4.52641e-02
1.46000e+00 9.71942e-01 1.02799e+00 9.72866e-01 9.55129e-01 9.71435e-01 4.35605e-02 1.33946e-01 4.46169e-02
1.47000e+00 9.72426e-01 1.02749e+00 9.73328e-01 9.55761e-01 9.71925e-01 4.29342e-02 1.33035e-01 4.39810e-02
1.48000e+00 9.72900e-01 1.02701e+00 9.73781e-01 9.56382e-01 9.72406e-01 4.23189e-02 1.32136e-01 4.33561e-02
1.49000e+00 9.73366e-01 1.02653e+00 9.74225e-01 9.56993e-01 9.72878e-01 4.17144e-02 1.31249e-01 4.27421e-02
1.50000e+00 9.73822e-01 1.02606e+00 9.74660e-01 9.57593e-01 9.73341e-01 4.11203e-02 1.30374e-01 4.21387e-02
1.51000e+00 9.74270e-01 1.02561e+00 9.75088e-01 9.58184e-01 9.73794e-01 4.05366e-02 1.29510e-01 4.15456e-02
1.52000e+00 9.74709e-01 1.02516e+00 9.75507e-01 9.58765e-01 9.74239e-01 3.99629e-02 1.28658e-01 4.09627e-02
1.53000e+00 9.75139e-01 1.02472e+00 9.75918e-01 9.59336e-01 9.74676e-01 3.93991e-02 1.27817e-01 4.03897e-02
1.54000e+00 9.75561e-01 1.02429e+00 9.76322e-01 9.59898e-01 9.75104e-01 3.88449e-02 1.26987e-01 3.98264e-02
1.55000e+00 9.75975e-01 1.02387e+00 9.76718e-01 9.60450e-01 9.75524e-01 3.83001e-02 1.26168e-01 3.92726e-02
1.56000e+00 9.76382e-01 1.02345e+00 9.77107e-01 9.60994e-01 9.75936e-01 3.77645e-02 1.25359e-01 3.87282e-02
1.57000e+00 9.76780e-01 1.02305e+00 9.77489e-01 9.61529e-01 9.76340e-01 3.72380e-02 1.24561e-01 3.81928e-02
1.58000e+00 9.77171e-01 1.02265e+00 9.77863e-01 9.62055e-01 9.76737e-01 3.67204e-02 1.23773e-01 3.76664e-02
1.59000e+00 9.77555e-01 1.02226e+00 9.78231e-01 9.62573e-01 9.77126e-01 3.62114e-02 1.22994e-01 3.71488e-02
1.60000e+00 9.77931e-01 1.02188e+00 9.78591e-01 9.63082e-01 9.77508e-01 3.57109e-02 1.22225e-01 3.66397e-02
1.61000e+00 9.78300e-01 1.02151e+00 9.78946e-01 9.63584e-01 9.77883e-01 3.52187e-02 1.21466e-01 3.61389e-02
1.62000e+00 9.78662e-01 1.02114e+00 9.79293e-01 9.64077e-01 9.78251e-01 3.47346e-02 1.20717e-01 3.56464e-02
1.63000e+00 9.79018e-01 1.02078e+00 9.79634e-01 9.64562e-01 9.78611e-01 3.42585e-02 1.19976e-01 3.51620e-02
1.64000e+00 9.79367e-01 1.02043e+00 9.79969e-01 9.65040e-01 9.78966e-01 3.37902e-02 1.19244e-01 3.46854e-02
1.65000e+00 9.79709e-01 1.02008e+00 9.80298e-01 9.65510e-01 9.79313e-01 3.33296e-02 1.18522e-01 3.42166e-02
1.66000e+00 9.80045e-01 1.01974e+00 9.80621e-01 9.65973e-01 9.79655e-01 3.28764e-02 1.17808e-01 3.37554e-02
1.67000e+00 9.80375e-01 1.01941e+00 9.80938e-01 9.66429e-01 9.79990e-01 3.24307e-02 1.17102e-01 3.33016e-02
1.68000e+00 9.80699e-01 1.01908e+00 9.81249e-01 9.66877e-01 9.80318e-01 3.19921e-02 1.16405e-01 3.28550e-02
1.69000e+00 9.81017e-01 1.01876e+00 9.81554e-01 9.67318e-01 9.80641e-01 3.15606e-02 1.15716e-01 3.24156e-02
1.70000e+00 9.81329e-01 1.01845e+00 9.81854e-01 9.67753e-01 9.80958e-01 3.11360e-02 1.15036e-01 3.19832e-02
1.71000e+00 9.81635e-01 1.01814e+00 9.82149e-01 9.68181e-01 9.81269e-01 3.07182e-02 1.14363e-01 3.15576e-02
1.72000e+00 9.81936e-01 1.01784e+00 9.82438e-01 9.68602e-01 9.81575e-01 3.03070e-02 1.13698e-01 3.11388e-02
1.73000e+00 9.82231e-01 1.01754e+00 9.82722e-01 9.69017e-01 9.81875e-01 2.99024e-02 1.13041e-01 3.07266e-02
1.74000e+00 9.82521e-01 1.01725e+00 9.83001e-01 9.69425e-01 9.82169e-01 2.95041e-02 1.12391e-01 3.03208e-02
1.75000e+00 9.82806e-01 1.01696e+00 9.83275e-01 9.69827e-01 9.82459e-01 2.91122e-02 1.11749e-01 2.99214e-02
1.76000e+00 9.83085e-01 1.01668e+00 9.83545e-01 9.70223e-01 9.82743e-01 2.87264e-02 1.11114e-01 2.95282e-02
1.77000e+00 9.83359e-01 1.01641e+00 9.83809e-01 9.70613e-01 9.83022e-01 2.83466e-02 1.10486e-01 2.91412e-02
1.78000e+00 9.83629e-01 1.01614e+00 9.84069e-01 9.70997e-01 9.83296e-01 2.79727e-02 1.09866e-01 2.87601e-02
1.79000e+00 9.83894e-01 1.01587e+00 9.84324e-01 9.71376e-01 9.83565e-01 2.76047e-02 1.09252e-01 2.83849e-02
1.80000e+00 9.84154e-01 1.01561e+00 9.84574e-01 9.71748e-01 9.83829e-01 2.72424e-02 1.08645e-01 2.80155e-02
1.81000e+00 9.84409e-01 1.01536e+00 9.84821e-01 9.72115e-01 9.84088e-01 2.68856e-02 1.08045e-01 2.76517e-02
